
   GPSTime         Latitude        Longitude      H-Ell          Roll         Pitch       Heading  
     (sec)            (Deg)            (Deg)        (m)         (Deg)         (Deg)         (Deg)  
453507.000    30.4540856008   114.5848399483     19.827    2.85954747    1.92406807  300.20114919 
453508.000    30.4541558885   114.5846856614     19.867    3.05100071    1.87112106  300.08668374 
453509.000    30.4542272215   114.5845278658     19.945    3.19729029    1.61416757  300.00076056 
453510.000    30.4542996545   114.5843668572     20.044    3.44297274    1.76747386  299.86253872 
453511.000    30.4543726191   114.5842033329     20.109    3.52647211    1.64658027  299.63527348 
453512.000    30.4544459011   114.5840377063     20.221    3.52902310    1.79164799  299.39741178 
453513.000    30.4545194604   114.5838698966     20.301    3.19523564    1.94722875  299.15454940 
453514.000    30.4545934631   114.5837001086     20.386    3.85210850    1.92650323  298.92397322 
453515.000    30.4546678800   114.5835289521     20.508    3.30840225    1.77674318  298.82240949 
453516.000    30.4547420056   114.5833563458     20.583    3.35291092    1.49444016  298.56044860 
453517.000    30.4548163864   114.5831822216     20.641    3.32753039    1.80696740  298.52339160 
453518.000    30.4548915073   114.5830067982     20.708    3.45780559    1.73172850  298.60685222 
453519.000    30.4549679521   114.5828302997     20.769    3.42222952    1.68338770  298.85466751 
453520.000    30.4550457923   114.5826524310     20.820    3.80338201    1.52983168  298.97945859 
453521.000    30.4551244651   114.5824736114     20.838    3.84337288    1.58528104  299.08270392 
453522.000    30.4552037253   114.5822941575     20.865    3.90722124    1.51042077  298.95381283 
453523.000    30.4552826311   114.5821131348     20.901    3.65905379    1.48285380  298.69172333 
453524.000    30.4553619986   114.5819303710     20.923    3.67612959    1.43913228  298.59782226 
453525.000    30.4554417082   114.5817465270     20.919    3.75477488    1.38706300  298.55028389 
453526.000    30.4555220355   114.5815614901     20.891    4.24741085    1.18649334  298.16952182 
453527.000    30.4556025178   114.5813735095     20.872    4.01019637    1.30570852  297.95842783 
453528.000    30.4556831640   114.5811820128     20.842    4.45073857    1.26682211  297.46549781 
453529.000    30.4557639327   114.5809869237     20.795    4.32509581    1.36885429  297.16513352 
453530.000    30.4558454586   114.5807886479     20.740    3.97985044    1.43093180  297.04693861 
453531.000    30.4559279873   114.5805877148     20.678    3.57637719    1.44473082  296.96787184 
453532.000    30.4560116035   114.5803839374     20.577    3.47680361    1.25120149  296.90506207 
453533.000    30.4560974695   114.5801775206     20.443    3.34068100    1.23110427  297.53780241 
453534.000    30.4561868473   114.5799690155     20.292    3.54724072    1.22622003  297.98298041 
453535.000    30.4562781844   114.5797576153     20.153    3.70158887    1.41951109  297.92209317 
453536.000    30.4563705838   114.5795429438     20.010    3.59341260    1.49570005  297.82575995 
453537.000    30.4564641887   114.5793252008     19.862    3.53998124    1.40542585  297.88492482 
453538.000    30.4565593132   114.5791053344     19.683    3.67950091    1.16123104  297.80695824 
453539.000    30.4566540216   114.5788871066     19.512    3.55528181    1.04137245  298.01998689 
453540.000    30.4567482590   114.5786727281     19.337    3.31298827    1.08041635  298.31872394 
453541.000    30.4568419486   114.5784602983     19.173    3.68598066    1.20973670  298.05539218 
453542.000    30.4569352709   114.5782462158     19.007    3.72224626    1.44068432  297.71354356 
453543.000    30.4570291003   114.5780300240     18.873    3.93500848    1.31748155  297.76094330 
453544.000    30.4571244179   114.5778113688     18.705    3.80972887    1.31944719  297.81680003 
453545.000    30.4572216259   114.5775895127     18.556    4.00404018    1.39876099  297.85269372 
453546.000    30.4573202807   114.5773641558     18.393    3.78670804    1.32597510  297.73145749 
453547.000    30.4574197731   114.5771348457     18.226    3.86792375    1.36401062  297.48149955 
453548.000    30.4575206097   114.5769018599     18.035    3.92321309    1.34902338  297.51751032 
453549.000    30.4576235411   114.5766657782     17.865    3.91733030    1.29855636  297.66946662 
453550.000    30.4577281888   114.5764266601     17.678    3.80658047    1.34507105  297.66820250 
453551.000    30.4578345977   114.5761846096     17.480    3.93333320    1.22492936  297.66751974 
453552.000    30.4579426001   114.5759396956     17.272    3.99482072    1.30465729  297.71126360 
453553.000    30.4580524259   114.5756925963     17.047    3.81487329    1.23592878  297.99334005 
453554.000    30.4581629774   114.5754467957     16.848    3.77154973    1.06008931  298.09253977 
453555.000    30.4582715982   114.5752048801     16.668    3.75997881    0.94419713  298.01253383 
453556.000    30.4583779682   114.5749665980     16.501    3.62947272    1.10229259  297.89762473 
453557.000    30.4584833750   114.5747310487     16.321    3.72603466    0.95406994  297.90630466 
453558.000    30.4585881337   114.5744963416     16.169    3.92228710    1.14270054  297.83177142 
453559.000    30.4586929434   114.5742629437     15.993    3.80847929    1.14284899  298.07559618 
453560.000    30.4587980661   114.5740315051     15.818    4.09576699    1.14491023  298.16010628 
453561.000    30.4589016822   114.5738015716     15.637    4.34026939    1.07204555  297.72781103 
453562.000    30.4590030054   114.5735728350     15.437    4.25193957    1.09481372  297.33725208 
453563.000    30.4591032850   114.5733432640     15.265    4.20815795    1.21074626  297.06638622 
453564.000    30.4592040995   114.5731124464     15.085    4.19783295    1.24966323  297.22715189 
453565.000    30.4593064778   114.5728803376     14.904    3.97651352    1.21607437  297.39782663 
453566.000    30.4594098912   114.5726463083     14.735    3.71277157    1.49376248  297.10347416 
453567.000    30.4595122327   114.5724104299     14.537    4.33078559    1.29828648  296.83264175 
453568.000    30.4596142702   114.5721751377     14.449    4.23492725    1.39227070  296.84446500 
453569.000    30.4597147726   114.5719405756     14.362    4.30875093    1.45818567  296.13298652 
453570.000    30.4598113913   114.5717063414     14.370    4.25231490    1.71739196  295.14845741 
453571.000    30.4599058598   114.5714709451     14.422    4.21610791    1.83338882  294.85510625 
453572.000    30.4600000317   114.5712341149     14.547    4.06727067    1.95549674  294.64022342 
453573.000    30.4600940506   114.5709956619     14.732    4.08444174    2.18437366  294.39630110 
453574.000    30.4601874281   114.5707559408     14.970    3.80301337    2.17144779  294.07646431 
453575.000    30.4602798984   114.5705154372     15.264    3.58905547    2.43578193  293.74408521 
453576.000    30.4603712524   114.5702747107     15.656    3.74313102    2.57769109  293.47592355 
453577.000    30.4604612852   114.5700333204     16.101    3.84012621    2.80806739  292.98819569 
453578.000    30.4605500401   114.5697911273     16.637    3.78068493    2.77633763  292.67959044 
453579.000    30.4606380878   114.5695487853     17.171    4.15122836    2.97356593  292.51825682 
453580.000    30.4607254234   114.5693063363     17.781    3.70626912    2.95243995  292.31886455 
453581.000    30.4608117228   114.5690637259     18.390    3.95269877    2.93953395  291.99192229 
453582.000    30.4608967517   114.5688212628     18.959    4.16617689    2.94512214  291.74063597 
453583.000    30.4609808748   114.5685787771     19.537    4.37561859    2.97287808  291.40100762 
453584.000    30.4610634523   114.5683356545     20.114    3.97259119    3.09241616  291.04271149 
453585.000    30.4611449140   114.5680919057     20.723    3.91305500    3.09633678  290.69523672 
453586.000    30.4612250603   114.5678478820     21.251    3.96031143    3.07350133  290.32708541 
453587.000    30.4613035132   114.5676039427     21.797    3.74422470    2.82186197  289.91370941 
453588.000    30.4613805225   114.5673591801     22.278    3.82029665    2.77464217  289.44893962 
453589.000    30.4614563161   114.5671131338     22.728    3.90644995    2.67507812  289.08584511 
453590.000    30.4615310869   114.5668655689     23.115    4.27026303    2.44072397  288.56610839 
453591.000    30.4616042646   114.5666159066     23.467    4.51610518    2.50833069  288.10824286 
453592.000    30.4616767194   114.5663642487     23.782    4.34144870    2.46610252  287.77713283 
453593.000    30.4617482533   114.5661105022     24.053    3.98530380    2.36803974  287.35165481 
453594.000    30.4618187220   114.5658543093     24.277    3.79818583    2.18565231  286.96498516 
453595.000    30.4618892779   114.5655963510     24.451    3.78237801    2.01832626  286.88786451 
453596.000    30.4619595864   114.5653380846     24.599    3.94198406    1.98462986  286.77073005 
453597.000    30.4620292188   114.5650822894     24.685    3.71789050    1.77068233  286.82490987 
453598.000    30.4620981718   114.5648294437     24.750    4.02744714    1.79731945  286.71035823 
453599.000    30.4621650038   114.5645785270     24.767    4.08743307    1.64140231  286.22305632 
453600.000    30.4622299628   114.5643296052     24.727    3.99250210    1.45081883  285.95563919 
453601.000    30.4622932281   114.5640828620     24.672    4.14702681    1.43217063  285.68506243 
453602.000    30.4623549374   114.5638376818     24.583    3.95443427    1.31737865  285.40487314 
453603.000    30.4624150909   114.5635944065     24.497    4.27969130    1.18277997  285.02991556 
453604.000    30.4624730595   114.5633548654     24.440    4.12600462    1.33393724  284.76167413 
453605.000    30.4625290726   114.5631192086     24.356    4.06630979    1.28664887  284.55047595 
453606.000    30.4625838270   114.5628869969     24.284    4.10412597    1.31227785  284.46371371 
453607.000    30.4626379715   114.5626566366     24.218    4.03253147    1.37936467  284.39130024 
453608.000    30.4626918729   114.5624267798     24.189    3.95642655    1.43869329  284.37002950 
453609.000    30.4627460646   114.5621970902     24.162    3.80982619    1.49372375  284.48925369 
453610.000    30.4628006983   114.5619674032     24.128    3.79868187    1.43182301  284.53681930 
453611.000    30.4628557213   114.5617358621     24.071    3.90574771    1.48788327  284.37088927 
453612.000    30.4629108416   114.5615011009     23.981    3.97899845    1.50522039  284.21146727 
453613.000    30.4629668328   114.5612628149     23.857    3.81295006    1.52855928  284.29732561 
453614.000    30.4630241234   114.5610210571     23.757    3.82867968    1.54589213  284.38243674 
453615.000    30.4630825594   114.5607759139     23.667    3.90359804    1.55147098  284.42109604 
453616.000    30.4631418354   114.5605276139     23.574    3.87403635    1.49816984  284.41845658 
453617.000    30.4632012955   114.5602798265     23.505    3.90934403    1.38917463  284.61298091 
453618.000    30.4632610601   114.5600342002     23.419    4.04059905    1.35893180  284.62980576 
453619.000    30.4633203333   114.5597903617     23.325    3.95275081    1.31635938  284.63563880 
453620.000    30.4633790184   114.5595500167     23.247    4.05959155    1.43976207  284.69397132 
453621.000    30.4634375702   114.5593104337     23.209    3.99068012    1.57362531  284.62437887 
453622.000    30.4634959200   114.5590697947     23.252    4.05531305    1.51031958  284.41420972 
453623.000    30.4635529547   114.5588294051     23.416    3.91267017    1.45902447  284.25910495 
453624.000    30.4636079770   114.5585904967     23.695    3.83114116    1.52609671  284.11808329 
453625.000    30.4636617482   114.5583531648     23.997    3.72769219    1.41945826  284.08426781 
453626.000    30.4637154573   114.5581169735     24.233    3.87565688    1.53280343  284.05605384 
453627.000    30.4637700948   114.5578803544     24.352    3.88180406    1.55580658  284.08851174 
453628.000    30.4638261478   114.5576416279     24.367    3.90092506    1.48175437  284.07926373 
453629.000    30.4638833888   114.5574001937     24.306    3.97557935    1.45826016  284.07500955 
453630.000    30.4639414214   114.5571577563     24.193    3.96700686    1.23805986  284.14901271 
453631.000    30.4639994951   114.5569189744     24.013    3.92105447    1.08356907  284.17925275 
453632.000    30.4640578352   114.5566835956     23.706    3.78697732    1.32811267  284.36324277 
453633.000    30.4641179282   114.5564483867     23.239    3.63884806    1.34110592  284.72510879 
453634.000    30.4641801046   114.5562121695     22.752    3.64710765    1.53130037  285.20708236 
453635.000    30.4642427261   114.5559745129     22.368    3.93603967    1.47524817  285.29191184 
453636.000    30.4643040788   114.5557392801     22.103    3.72440750    1.14055174  285.35064415 
453637.000    30.4643646492   114.5555073244     21.949    3.53924007    1.56088852  285.54696449 
453638.000    30.4644259433   114.5552754384     21.896    4.02857120    1.47959898  285.52092822 
453639.000    30.4644875164   114.5550410472     21.877    3.89778513    1.58496156  285.39739063 
453640.000    30.4645497318   114.5548034450     21.835    4.29428139    1.48440836  285.38224636 
453641.000    30.4646138340   114.5545626169     21.730    4.00075491    1.71097393  285.81132611 
453642.000    30.4646799856   114.5543196814     21.691    4.08009756    1.36330923  286.07965936 
453643.000    30.4647467415   114.5540775622     21.622    4.12651789    1.47798743  286.14817094 
453644.000    30.4648132360   114.5538356832     21.541    3.98806234    1.43082526  286.02816588 
453645.000    30.4648784659   114.5535967967     21.460    4.17916655    1.38222381  285.86614130 
453646.000    30.4649430527   114.5533616289     21.397    3.98879873    1.70283062  286.17311602 
453647.000    30.4650082594   114.5531300074     21.337    4.00365694    1.29868724  286.46275543 
453648.000    30.4650733319   114.5529026158     21.235    3.87221544    1.30066671  286.85771551 
453649.000    30.4651390107   114.5526784253     21.167    3.81310117    1.49525737  287.23468344 
453650.000    30.4652038925   114.5524565694     21.096    4.13499308    1.34172044  286.65267365 
453651.000    30.4652665350   114.5522380572     21.021    3.94874286    1.32243309  286.65391485 
453652.000    30.4653283076   114.5520234449     20.946    3.97293367    1.41158244  286.72689292 
453653.000    30.4653895121   114.5518127807     20.885    3.94942147    1.36890406  286.95470574 
453654.000    30.4654507186   114.5516064087     20.826    4.05332892    1.46714912  287.30180180 
453655.000    30.4655120485   114.5514038710     20.748    4.03077986    1.54488375  287.66196872 
453656.000    30.4655734508   114.5512024193     20.696    4.21877387    1.46229320  287.55874460 
453657.000    30.4656345430   114.5510001936     20.625    4.44512016    1.57236759  287.27013914 
453658.000    30.4656956215   114.5507964629     20.568    4.39061100    1.54894115  287.26646080 
453659.000    30.4657581376   114.5505899304     20.504    4.36846870    1.54273794  287.51570077 
453660.000    30.4658226410   114.5503798371     20.441    4.33404904    1.64444438  287.72436219 
453661.000    30.4658886009   114.5501657171     20.380    4.13103754    1.59211171  287.64411821 
453662.000    30.4659555318   114.5499475142     20.356    4.12924823    1.65424481  287.56562077 
453663.000    30.4660244777   114.5497256076     20.262    4.05871135    1.59279886  287.88066140 
453664.000    30.4660949327   114.5495002488     20.201    4.28393024    1.56179742  287.95562055 
453665.000    30.4661668369   114.5492759548     20.131    4.23690008    1.37449343  288.68010853 
453666.000    30.4662398889   114.5490545740     20.051    4.13045348    1.61394793  288.89852066 
453667.000    30.4663133454   114.5488325603     20.016    4.52777515    1.69626831  288.74700451 
453668.000    30.4663867546   114.5486073138     19.913    4.05940671    1.57919537  288.53404873 
453669.000    30.4664611340   114.5483782569     19.835    4.33215715    1.73398696  288.52989528 
453670.000    30.4665376852   114.5481457354     19.764    4.46117615    1.58311953  288.98436350 
453671.000    30.4666166761   114.5479098603     19.641    4.40774028    1.47804657  289.08172229 
453672.000    30.4666969334   114.5476705630     19.495    4.05493856    1.25438069  289.09676005 
453673.000    30.4667779861   114.5474295720     19.300    4.23543617    1.21560027  289.14468456 
453674.000    30.4668603070   114.5471866148     19.069    4.11409371    1.22507352  289.34526717 
453675.000    30.4669437024   114.5469430475     18.833    4.25381554    1.14996850  289.53201274 
453676.000    30.4670280003   114.5466986235     18.567    4.21160950    0.93648763  289.58695092 
453677.000    30.4671131485   114.5464526963     18.273    4.32276996    0.91395184  289.63629188 
453678.000    30.4671986765   114.5462068071     18.002    4.24889932    1.01779169  289.84882292 
453679.000    30.4672856643   114.5459609690     17.700    4.20336305    1.01072833  290.17291213 
453680.000    30.4673742363   114.5457138797     17.399    4.28745681    1.06787011  290.33940614 
453681.000    30.4674634866   114.5454657166     17.046    4.25159620    0.97940541  290.32256619 
453682.000    30.4675529798   114.5452169892     16.712    4.38017380    0.94229893  290.32470438 
453683.000    30.4676427215   114.5449677837     16.364    4.45188324    0.87979392  290.30749951 
453684.000    30.4677323228   114.5447190577     16.034    4.33794713    1.11056465  290.29013158 
453685.000    30.4678222361   114.5444686562     15.750    4.11384458    1.27782915  290.08194896 
453686.000    30.4679122428   114.5442155144     15.327    4.16248000    1.36806602  289.95793369 
453687.000    30.4680030309   114.5439594618     15.007    4.48869857    0.97841157  289.89261469 
453688.000    30.4680941460   114.5437021499     14.736    4.27533954    1.21460522  289.92263238 
453689.000    30.4681858979   114.5434435887     14.530    4.37368637    1.26921189  289.93009015 
453690.000    30.4682783012   114.5431837900     14.259    4.34593339    1.11308463  290.02916332 
453691.000    30.4683714747   114.5429229703     13.953    4.20103367    0.87011780  290.03022733 
453692.000    30.4684641916   114.5426633024     13.636    4.13909262    0.98458866  290.00921027 
453693.000    30.4685565432   114.5424047637     13.321    4.26631914    0.92948123  289.99755170 
453694.000    30.4686489654   114.5421468371     12.979    4.40637923    0.85896132  290.06637994 
453695.000    30.4687416922   114.5418883414     12.628    4.37685987    0.96221386  290.04751277 
453696.000    30.4688348803   114.5416281930     12.325    4.35720583    1.01902069  289.93568406 
453697.000    30.4689282584   114.5413655854     12.052    4.36841435    1.18656301  289.77848732 
453698.000    30.4690222116   114.5411003170     11.794    4.34469047    1.33831498  289.72309489 
453699.000    30.4691170632   114.5408324328     11.581    4.27864971    1.30572021  289.71794481 
453700.000    30.4692129232   114.5405619424     11.372    4.27023839    1.28630739  289.68193962 
453701.000    30.4693098566   114.5402888773     11.142    4.23946356    1.36061902  289.82608658 
453702.000    30.4694082072   114.5400143153     10.926    4.29763373    1.25650905  289.94202180 
453703.000    30.4695065864   114.5397401853     10.740    4.45882416    1.32833073  289.84996366 
