   GPSTime         Latitude        Longitude      H-Ell      Vel-N      Vel-E    Vel-U  
     (sec)            (Deg)            (Deg)        (m)      (m/s)      (m/s)    (m/s)  
 451981.00    30.4671526880   114.6595703684      8.069     -0.921      7.291   -0.040 
 451982.00    30.4672195421   114.6595608103      8.034     -0.926      7.498   -0.001 
 451983.00    30.4672874094   114.6595512156      8.040     -0.896      7.507   -0.017 
 451984.00    30.4673547465   114.6595420683      8.024     -0.871      7.419   -0.021 
 451985.00    30.4674212114   114.6595330581      8.019     -0.890      7.319   -0.018 
 451986.00    30.4674866946   114.6595235707      8.028     -0.946      7.224    0.006 
 451987.00    30.4675515602   114.6595137457      8.031     -0.867      7.131    0.010 
 451988.00    30.4676141762   114.6595046522      8.025     -0.920      6.720    0.015 
 451989.00    30.4676731845   114.6594951327      8.041     -0.950      6.424    0.039 
 451990.00    30.4677306965   114.6594848111      8.033     -1.050      6.240    0.005 
 451991.00    30.4677849594   114.6594731598      8.035     -1.203      5.785   -0.010 
 451992.00    30.4678365359   114.6594606525      8.049     -1.269      5.671    0.025 
 451993.00    30.4678892536   114.6594469015      8.086     -1.389      6.098    0.028 
 451994.00    30.4679461459   114.6594315460      8.099     -1.572      6.451    0.027 
 451995.00    30.4680026004   114.6594149973      8.116     -1.558      5.987    0.000 
 451996.00    30.4680498801   114.6594000759      8.134     -1.297      4.144   -0.004 
 451997.00    30.4680763091   114.6593893633      8.152     -0.839      2.299    0.019 
 451998.00    30.4680964323   114.6593811107      8.170     -0.800      2.331    0.017 
 451999.00    30.4681213704   114.6593721318      8.184     -0.915      3.310   -0.000 
 452000.00    30.4681564033   114.6593620316      8.197     -0.969      4.435    0.011 
 452001.00    30.4682006681   114.6593526346      8.209     -0.790      5.362   -0.001 
 452002.00    30.4682527291   114.6593456844      8.206     -0.557      6.167    0.012 
 452003.00    30.4683090047   114.6593407513      8.207     -0.427      6.102    0.012 
 452004.00    30.4683614244   114.6593360630      8.215     -0.501      5.454    0.007 
 452005.00    30.4684053166   114.6593295363      8.221     -0.755      4.231    0.003 
 452006.00    30.4684381904   114.6593204948      8.239     -1.010      3.039    0.010 
 452007.00    30.4684612580   114.6593088847      8.263     -1.308      2.310    0.021 
 452008.00    30.4684803726   114.6592917751      8.260     -2.127      1.777   -0.034 
 452009.00    30.4684904483   114.6592657787      8.251     -2.834      0.341   -0.023 
 452010.00    30.4684873387   114.6592366931      8.211     -2.872     -1.162   -0.045 
 452011.00    30.4684691781   114.6592101297      8.166     -2.286     -3.154   -0.043 
 452012.00    30.4684338649   114.6591955871      8.146     -0.690     -4.707   -0.016 
 452013.00    30.4683884345   114.6591928010      8.117      0.128     -5.544   -0.028 
 452014.00    30.4683351461   114.6591990885      8.110      0.852     -6.354    0.003 
 452015.00    30.4682739500   114.6592086162      8.110      0.969     -7.225    0.030 
 452016.00    30.4682047576   114.6592189538      8.092      1.082     -8.087   -0.080 
 452017.00    30.4681289726   114.6592304904      8.092      1.133     -8.712    0.024 
 452018.00    30.4680478098   114.6592426721      8.093      1.195     -9.238   -0.030 
 452019.00    30.4679633195   114.6592550564      8.079      1.187     -9.498   -0.021 
 452020.00    30.4678758561   114.6592674959      8.048      1.203     -9.920   -0.021 
 452021.00    30.4677845976   114.6592801828      8.048      1.267    -10.292    0.000 
 452022.00    30.4676905520   114.6592939676      8.037      1.392    -10.560   -0.013 
 452023.00    30.4675937414   114.6593087978      8.039      1.491    -10.937   -0.070 
 452024.00    30.4674935866   114.6593250298      8.004      1.611    -11.306   -0.013 
 452025.00    30.4673894836   114.6593429353      7.997      1.796    -11.782    0.034 
 452026.00    30.4672809849   114.6593622210      7.977      1.911    -12.260   -0.072 
 452027.00    30.4671692966   114.6593825452      7.968      1.957    -12.479   -0.050 
 452028.00    30.4670555422   114.6594037796      7.967      2.093    -12.783   -0.033 
 452029.00    30.4669384032   114.6594260854      7.975      2.192    -13.201    0.016 
 452030.00    30.4668182626   114.6594491714      7.973      2.220    -13.358   -0.021 
 452031.00    30.4666979918   114.6594723499      7.946      2.237    -13.321   -0.051 
 452032.00    30.4665771861   114.6594958322      7.946      2.227    -13.409    0.009 
 452033.00    30.4664574001   114.6595190158      7.917      2.193    -13.115   -0.025 
 452034.00    30.4663403974   114.6595410366      7.910      2.048    -12.878   -0.039 
 452035.00    30.4662234561   114.6595619932      7.906      1.995    -13.094   -0.030 
 452036.00    30.4661049028   114.6595825892      7.875      1.977    -13.130    0.001 
 452037.00    30.4659869114   114.6596037137      7.814      2.113    -13.009    0.000 
 452038.00    30.4658701253   114.6596278580      7.827      2.463    -12.965    0.017 
 452039.00    30.4657518034   114.6596528282      7.840      2.363    -13.266    0.055 
 452040.00    30.4656304059   114.6596768490      7.832      2.289    -13.620   -0.069 
 452041.00    30.4655063323   114.6597011187      7.839      2.364    -13.846   -0.094 
 452042.00    30.4653814431   114.6597258716      7.803      2.373    -13.815   -0.006 
 452043.00    30.4652563139   114.6597497967      7.764      2.234    -13.934    0.008 
 452044.00    30.4651300090   114.6597730526      7.764      2.195    -14.053    0.065 
 452045.00    30.4650036365   114.6597956169      7.822      2.121    -13.926    0.063 
 452046.00    30.4648789940   114.6598178282      7.869      2.156    -13.727    0.028 
 452047.00    30.4647548170   114.6598402713      7.842      2.179    -13.852    0.210 
 452048.00    30.4646290342   114.6598624258      7.862      2.085    -14.045    0.063 
 452049.00    30.4645012538   114.6598835704      7.883      1.994    -14.281    0.032 
 452050.00    30.4643720349   114.6599036596      7.885      1.855    -14.278    0.011 
 452051.00    30.4642442473   114.6599225556      7.845      1.837    -14.070    0.110 
 452052.00    30.4641171982   114.6599423550      7.935      1.843    -14.103    0.064 
 452053.00    30.4639895136   114.6599620173      7.972      1.926    -14.215    0.082 
 452054.00    30.4638605630   114.6599821156      7.991      1.966    -14.370    0.049 
 452055.00    30.4637302480   114.6600023870      8.027      1.923    -14.530    0.033 
 452056.00    30.4635983599   114.6600220937      8.054      1.922    -14.706    0.022 
 452057.00    30.4634651606   114.6600431503      8.088      2.116    -14.830    0.077 
 452058.00    30.4633307816   114.6600654265      8.133      2.176    -14.942    0.022 
 452059.00    30.4631959394   114.6600880453      8.152      2.129    -15.001    0.002 
 452060.00    30.4630597006   114.6601093839      8.200      1.988    -15.208    0.029 
 452061.00    30.4629216876   114.6601293074      8.229      1.830    -15.343    0.081 
 452062.00    30.4627832449   114.6601477961      8.243      1.761    -15.328    0.008 
 452063.00    30.4626450778   114.6601667595      8.255      1.871    -15.351    0.037 
 452064.00    30.4625057786   114.6601868965      8.283      1.977    -15.549    0.006 
 452065.00    30.4623644408   114.6602077484      8.287      2.040    -15.787   -0.032 
 452066.00    30.4622210783   114.6602292220      8.310      2.078    -15.974    0.036 
 452067.00    30.4620770272   114.6602509198      8.322      2.075    -15.953    0.036 
 452068.00    30.4619327212   114.6602721072      8.348      2.017    -16.073    0.062 
 452069.00    30.4617867566   114.6602929089      8.353      2.000    -16.282   -0.003 
 452070.00    30.4616396116   114.6603137248      8.330      1.998    -16.317   -0.004 
 452071.00    30.4614921770   114.6603344697      8.320      2.005    -16.397   -0.063 
 452072.00    30.4613446534   114.6603554403      8.336      2.055    -16.292    0.014 
 452073.00    30.4611978911   114.6603772854      8.357      2.138    -16.305    0.011 
 452074.00    30.4610501617   114.6603999424      8.376      2.194    -16.432    0.015 
 452075.00    30.4609014776   114.6604230916      8.382      2.246    -16.567   -0.034 
 452076.00    30.4607509026   114.6604466675      8.363      2.276    -16.821   -0.022 
 452077.00    30.4605989941   114.6604701681      8.385      2.219    -16.827    0.098 
 452078.00    30.4604475545   114.6604927869      8.405      2.123    -16.762    0.030 
 452079.00    30.4602957394   114.6605146207      8.397      2.078    -16.922   -0.057 
 452080.00    30.4601427536   114.6605360317      8.383      2.041    -16.965   -0.049 
 452081.00    30.4599897718   114.6605571957      8.357      2.013    -16.961   -0.009 
 452082.00    30.4598370863   114.6605779501      8.354      1.988    -16.907    0.097 
 452083.00    30.4596843099   114.6605993273      8.360      2.097    -16.995   -0.034 
 452084.00    30.4595301465   114.6606216502      8.422      2.154    -17.199    0.035 
 452085.00    30.4593745758   114.6606440246      8.440      2.088    -17.196    0.106 
 452086.00    30.4592202307   114.6606639325      8.534      1.740    -17.010    0.041 
 452087.00    30.4590677978   114.6606802073      8.597      1.472    -16.783    0.148 
 452088.00    30.4589174640   114.6606938457      8.692      1.152    -16.570    0.083 
 452089.00    30.4587688812   114.6607042379      8.794      0.809    -16.366    0.330 
 452090.00    30.4586218576   114.6607098032      8.924      0.311    -16.171    0.248 
 452091.00    30.4584769825   114.6607106026      9.191     -0.173    -15.893    0.271 
 452092.00    30.4583353702   114.6607048244      9.441     -0.970    -15.506    0.121 
 452093.00    30.4581975616   114.6606899131      9.646     -1.865    -15.053    0.095 
 452094.00    30.4580636890   114.6606654132      9.765     -2.829    -14.540    0.235 
 452095.00    30.4579349229   114.6606307827     10.007     -3.744    -14.007    0.323 
 452096.00    30.4578110537   114.6605882560     10.247     -4.417    -13.467    0.133 
 452097.00    30.4576923404   114.6605384426     10.416     -5.026    -12.816    0.204 
 452098.00    30.4575796761   114.6604844304     10.603     -5.362    -12.027    0.137 
 452099.00    30.4574757450   114.6604259162     10.907     -5.879    -11.058    0.068 
 452100.00    30.4573795628   114.6603639492     11.099     -6.013    -10.255    0.176 
 452101.00    30.4572904428   114.6603023284     11.224     -5.785     -9.458    0.123 
 452102.00    30.4572099185   114.6602429517     11.378     -5.608     -8.423    0.129 
 452103.00    30.4571379873   114.6601854567     11.496     -5.416     -7.488    0.106 
 452104.00    30.4570747178   114.6601306082     11.597     -5.107     -6.537    0.090 
 452105.00    30.4570188733   114.6600788018     11.688     -4.821     -5.832    0.094 
 452106.00    30.4569707751   114.6600320806     11.778     -4.080     -4.815    0.084 
 452107.00    30.4569317349   114.6599949867     11.851     -2.927     -3.791    0.058 
 452108.00    30.4569026586   114.6599741130     11.916     -1.100     -2.779    0.093 
 452109.00    30.4568804113   114.6599694097     12.000      0.169     -2.375    0.104 
 452110.00    30.4568610341   114.6599781433     12.122      1.499     -2.118    0.162 
 452111.00    30.4568475658   114.6599995258     12.250      2.532     -1.059    0.148 
 452112.00    30.4568467046   114.6600308993     12.323      3.418      0.803    0.060 
 452113.00    30.4568645579   114.6600664701     12.338      3.477      2.842   -0.015 
 452114.00    30.4568963588   114.6601033209     12.291      3.651      4.145   -0.070 
 452115.00    30.4569369406   114.6601419613     12.197      3.749      4.540   -0.103 
 452116.00    30.4569756936   114.6601810925     12.119      3.821      4.081   -0.066 
 452117.00    30.4570095695   114.6602213981     12.089      3.779      3.443   -0.009 
 452118.00    30.4570365052   114.6602567881     12.096      2.823      2.522   -0.023 
 452119.00    30.4570551495   114.6602801451     12.080      1.878      1.769   -0.032 
 452120.00    30.4570712471   114.6602962376     12.082      1.271      1.631   -0.011 
 452121.00    30.4570833568   114.6603065544     12.062      0.699      0.976   -0.038 
 452122.00    30.4570883132   114.6603106438     12.047      0.100      0.131   -0.002 
 452123.00    30.4570883487   114.6603106669     12.049      0.001      0.001   -0.000 
 452124.00    30.4570883396   114.6603106665     12.049     -0.000     -0.001    0.001 
 452125.00    30.4570883403   114.6603106696     12.048     -0.001      0.001   -0.004 
 452126.00    30.4570883338   114.6603106797     12.046      0.001     -0.002   -0.002 
 452127.00    30.4570883311   114.6603106716     12.046     -0.001      0.001    0.000 
 452128.00    30.4570883376   114.6603106696     12.046     -0.002     -0.000    0.001 
 452129.00    30.4570883375   114.6603106716     12.045      0.003      0.000   -0.001 
 452130.00    30.4570883404   114.6603106792     12.044     -0.002      0.000   -0.003 
 452131.00    30.4570883475   114.6603106672     12.044     -0.001      0.000    0.002 
 452132.00    30.4570883499   114.6603106679     12.043     -0.000     -0.002   -0.002 
 452133.00    30.4570883410   114.6603106724     12.042      0.004     -0.001   -0.004 
 452134.00    30.4570883480   114.6603106941     12.042      0.005      0.005   -0.005 
 452135.00    30.4570883493   114.6603106816     12.041      0.001      0.001   -0.006 
 452136.00    30.4570883506   114.6603106735     12.041      0.001      0.002   -0.002 
 452137.00    30.4570883488   114.6603106861     12.042      0.003     -0.001    0.002 
 452138.00    30.4570883399   114.6603106962     12.042     -0.001      0.001    0.001 
 452139.00    30.4570883511   114.6603106885     12.044     -0.003     -0.000   -0.001 
 452140.00    30.4570883528   114.6603106884     12.045     -0.002     -0.004    0.002 
 452141.00    30.4570883481   114.6603106781     12.045     -0.001      0.001    0.001 
 452142.00    30.4570883544   114.6603106721     12.043      0.001      0.003   -0.002 
 452143.00    30.4570883581   114.6603106778     12.042     -0.000      0.002   -0.001 
 452144.00    30.4570883554   114.6603106800     12.041      0.000     -0.003   -0.001 
 452145.00    30.4570883517   114.6603106810     12.041     -0.001     -0.000    0.001 
 452146.00    30.4570883583   114.6603106783     12.041      0.002      0.001    0.001 
 452147.00    30.4570883614   114.6603106725     12.040     -0.001      0.002   -0.000 
 452148.00    30.4570897576   114.6603118934     12.039      0.185      0.247   -0.006 
 452149.00    30.4570919825   114.6603136321     12.033      0.152      0.235   -0.009 
 452150.00    30.4570933939   114.6603146723     12.026      0.030      0.056   -0.006 
 452151.00    30.4570934222   114.6603146964     12.022     -0.001     -0.005   -0.003 
 452152.00    30.4570934226   114.6603147005     12.020      0.000      0.002   -0.001 
 452153.00    30.4570934263   114.6603146861     12.018      0.001      0.002   -0.002 
 452154.00    30.4570934277   114.6603146913     12.016      0.000     -0.001   -0.001 
 452155.00    30.4570934260   114.6603146893     12.016      0.003      0.001    0.001 
 452156.00    30.4570934300   114.6603146909     12.015      0.001      0.002   -0.001 
 452157.00    30.4570934299   114.6603146992     12.015     -0.001     -0.001   -0.001 
 452158.00    30.4570934363   114.6603147018     12.015     -0.000     -0.002    0.002 
 452159.00    30.4570934358   114.6603146983     12.014     -0.001      0.003   -0.000 
 452160.00    30.4570934253   114.6603146840     12.014     -0.000      0.000   -0.000 
 452161.00    30.4570934264   114.6603146921     12.012     -0.000     -0.001    0.002 
 452162.00    30.4570934313   114.6603146971     12.012      0.000      0.002    0.003 
 452163.00    30.4570934298   114.6603146820     12.013     -0.002     -0.000   -0.000 
 452164.00    30.4570934389   114.6603146814     12.014      0.000     -0.000    0.001 
 452165.00    30.4570934422   114.6603146992     12.014      0.002     -0.002    0.002 
 452166.00    30.4570934386   114.6603146965     12.016     -0.001      0.001    0.004 
 452167.00    30.4570934419   114.6603146903     12.017     -0.001      0.001   -0.002 
 452168.00    30.4570934453   114.6603146812     12.016     -0.001     -0.001   -0.005 
 452169.00    30.4570934475   114.6603146807     12.014     -0.001     -0.002   -0.001 
 452170.00    30.4570934411   114.6603146796     12.013      0.001      0.001    0.002 
 452171.00    30.4570934360   114.6603146831     12.013     -0.000      0.004    0.001 
 452172.00    30.4570934394   114.6603146813     12.014     -0.001      0.000   -0.001 
 452173.00    30.4570934439   114.6603146879     12.013      0.000     -0.001   -0.003 
 452174.00    30.4570934433   114.6603146891     12.012     -0.001     -0.002    0.001 
 452175.00    30.4570934400   114.6603146879     12.011     -0.002     -0.002    0.005 
 452176.00    30.4570934520   114.6603146909     12.012      0.004      0.006    0.002 
 452177.00    30.4570934841   114.6603147173     12.013     -0.002     -0.001    0.001 
 452178.00    30.4570934881   114.6603147205     12.014      0.000      0.001   -0.001 
 452179.00    30.4570935005   114.6603147242     12.014      0.003      0.002    0.000 
 452180.00    30.4570935013   114.6603147350     12.013      0.001     -0.001    0.001 
 452181.00    30.4570934984   114.6603147370     12.014     -0.001     -0.001    0.003 
 452182.00    30.4570934975   114.6603147410     12.016      0.000     -0.001   -0.000 
 452183.00    30.4570935081   114.6603147484     12.014      0.001      0.002   -0.004 
 452184.00    30.4570935256   114.6603147510     12.012      0.002      0.001   -0.002 
 452185.00    30.4570935246   114.6603147657     12.012      0.002     -0.002    0.001 
 452186.00    30.4570935206   114.6603147618     12.014     -0.000     -0.001    0.002 
 452187.00    30.4570935257   114.6603147599     12.015     -0.000     -0.001    0.003 
 452188.00    30.4570935314   114.6603147636     12.017     -0.001     -0.000    0.003 
 452189.00    30.4570935277   114.6603147680     12.018     -0.002     -0.000    0.001 
 452190.00    30.4570935295   114.6603147780     12.019     -0.000      0.000   -0.001 
 452191.00    30.4570935318   114.6603147719     12.019     -0.001      0.000   -0.000 
 452192.00    30.4570935352   114.6603147708     12.019      0.000      0.002   -0.001 
 452193.00    30.4570935357   114.6603147610     12.020     -0.001     -0.000    0.001 
 452194.00    30.4570935382   114.6603147584     12.019      0.000      0.000    0.002 
 452195.00    30.4570935454   114.6603147692     12.019      0.002     -0.000    0.000 
 452196.00    30.4570935454   114.6603147820     12.019     -0.001      0.001    0.002 
 452197.00    30.4570935491   114.6603147809     12.019     -0.001      0.000   -0.001 
 452198.00    30.4570935515   114.6603147837     12.018      0.002     -0.001   -0.000 
 452199.00    30.4570935552   114.6603147870     12.018     -0.000      0.002    0.002 
 452200.00    30.4570935638   114.6603147803     12.018     -0.000      0.000    0.000 
 452201.00    30.4570935638   114.6603147824     12.018     -0.001     -0.001    0.001 
 452202.00    30.4570935602   114.6603147812     12.019      0.001     -0.001    0.002 
