
   GPSTime         Latitude        Longitude      H-Ell          Roll         Pitch       Heading  
     (sec)            (Deg)            (Deg)        (m)         (Deg)         (Deg)         (Deg)  
453507.000    30.4540860684   114.5848402613     19.824    2.85954747    1.92406807  300.20114919 
453508.000    30.4541563566   114.5846859732     19.864    3.05100071    1.87112106  300.08668374 
453509.000    30.4542276899   114.5845281769     19.942    3.19729029    1.61416757  300.00076056 
453510.000    30.4543001235   114.5843671667     20.040    3.44297274    1.76747386  299.86253872 
453511.000    30.4543730891   114.5842036403     20.105    3.52647211    1.64658027  299.63527348 
453512.000    30.4544463722   114.5840380113     20.217    3.52902310    1.79164799  299.39741178 
453513.000    30.4545199329   114.5838701994     20.298    3.19523564    1.94722875  299.15454940 
453514.000    30.4545939363   114.5837004088     20.382    3.85210850    1.92650323  298.92397322 
453515.000    30.4546683538   114.5835292518     20.505    3.30840225    1.77674318  298.82240949 
453516.000    30.4547424805   114.5833566431     20.579    3.35291092    1.49444016  298.56044860 
453517.000    30.4548168616   114.5831825184     20.637    3.32753039    1.80696740  298.52339160 
453518.000    30.4548919821   114.5830070958     20.705    3.45780559    1.73172850  298.60685222 
453519.000    30.4549684257   114.5828305997     20.765    3.42222952    1.68338770  298.85466751 
453520.000    30.4550462651   114.5826527320     20.816    3.80338201    1.52983168  298.97945859 
453521.000    30.4551249375   114.5824739133     20.834    3.84337288    1.58528104  299.08270392 
453522.000    30.4552041982   114.5822944582     20.861    3.90722124    1.51042077  298.95381283 
453523.000    30.4552831053   114.5821134332     20.897    3.65905379    1.48285380  298.69172333 
453524.000    30.4553624732   114.5819306686     20.919    3.67612959    1.43913228  298.59782226 
453525.000    30.4554421830   114.5817468240     20.915    3.75477488    1.38706300  298.55028389 
453526.000    30.4555225117   114.5815617834     20.887    4.24741085    1.18649334  298.16952182 
453527.000    30.4556029951   114.5813738008     20.868    4.01019637    1.30570852  297.95842783 
453528.000    30.4556836432   114.5811822991     20.837    4.45073857    1.26682211  297.46549781 
453529.000    30.4557644133   114.5809872071     20.790    4.32509581    1.36885429  297.16513352 
453530.000    30.4558459399   114.5807889303     20.736    3.97985044    1.43093180  297.04693861 
453531.000    30.4559284691   114.5805879967     20.674    3.57637719    1.44473082  296.96787184 
453532.000    30.4560120856   114.5803842189     20.573    3.47680361    1.25120149  296.90506207 
453533.000    30.4560979489   114.5801778083     20.439    3.34068100    1.23110427  297.53780241 
453534.000    30.4561873246   114.5799693074     20.288    3.54724072    1.22622003  297.98298041 
453535.000    30.4562786621   114.5797579063     20.149    3.70158887    1.41951109  297.92209317 
453536.000    30.4563710619   114.5795432339     20.006    3.59341260    1.49570005  297.82575995 
453537.000    30.4564646666   114.5793254916     19.858    3.53998124    1.40542585  297.88492482 
453538.000    30.4565597913   114.5791056246     19.679    3.67950091    1.16123104  297.80695824 
453539.000    30.4566544988   114.5788873989     19.508    3.55528181    1.04137245  298.01998689 
453540.000    30.4567487349   114.5786730233     19.333    3.31298827    1.08041635  298.31872394 
453541.000    30.4568424255   114.5784605908     19.169    3.68598066    1.20973670  298.05539218 
453542.000    30.4569357495   114.5782465048     19.003    3.72224626    1.44068432  297.71354356 
453543.000    30.4570295785   114.5780303135     18.869    3.93500848    1.31748155  297.76094330 
453544.000    30.4571248959   114.5778116588     18.701    3.80972887    1.31944719  297.81680003 
453545.000    30.4572221037   114.5775898029     18.552    4.00404018    1.39876099  297.85269372 
453546.000    30.4573207591   114.5773644451     18.389    3.78670804    1.32597510  297.73145749 
453547.000    30.4574202526   114.5771351324     18.222    3.86792375    1.36401062  297.48149955 
453548.000    30.4575210889   114.5769021470     18.031    3.92321309    1.34902338  297.51751032 
453549.000    30.4576240197   114.5766660668     17.861    3.91733030    1.29855636  297.66946662 
453550.000    30.4577286674   114.5764269487     17.674    3.80658047    1.34507105  297.66820250 
453551.000    30.4578350763   114.5761848982     17.476    3.93333320    1.22492936  297.66751974 
453552.000    30.4579430785   114.5759399845     17.268    3.99482072    1.30465729  297.71126360 
453553.000    30.4580529031   114.5756928880     17.043    3.81487329    1.23592878  297.99334005 
453554.000    30.4581634542   114.5754470886     16.844    3.77154973    1.06008931  298.09253977 
453555.000    30.4582720752   114.5752051723     16.664    3.75997881    0.94419713  298.01253383 
453556.000    30.4583784458   114.5749668890     16.498    3.62947272    1.10229259  297.89762473 
453557.000    30.4584838526   114.5747313399     16.317    3.72603466    0.95406994  297.90630466 
453558.000    30.4585886116   114.5744966318     16.165    3.92228710    1.14270054  297.83177142 
453559.000    30.4586934202   114.5742632363     15.989    3.80847929    1.14284899  298.07559618 
453560.000    30.4587985424   114.5740317984     15.813    4.09576699    1.14491023  298.16010628 
453561.000    30.4589021602   114.5738018606     15.633    4.34026939    1.07204555  297.72781103 
453562.000    30.4590034853   114.5735731203     15.432    4.25193957    1.09481372  297.33725208 
453563.000    30.4591037660   114.5733435467     15.261    4.20815795    1.21074626  297.06638622 
453564.000    30.4592045798   114.5731127306     15.081    4.19783295    1.24966323  297.22715189 
453565.000    30.4593069575   114.5728806235     14.899    3.97651352    1.21607437  297.39782663 
453566.000    30.4594103724   114.5726465913     14.731    3.71277157    1.49376248  297.10347416 
453567.000    30.4595127147   114.5724107102     14.533    4.33078559    1.29828648  296.83264175 
453568.000    30.4596147523   114.5721754181     14.444    4.23492725    1.39227070  296.84446500 
453569.000    30.4597152576   114.5719408489     14.357    4.30875093    1.45818567  296.13298652 
453570.000    30.4598118803   114.5717066049     14.365    4.25231490    1.71739196  295.14845741 
453571.000    30.4599063501   114.5714712057     14.418    4.21610791    1.83338882  294.85510625 
453572.000    30.4600005229   114.5712343733     14.543    4.06727067    1.95549674  294.64022342 
453573.000    30.4600945428   114.5709959177     14.727    4.08444174    2.18437366  294.39630110 
453574.000    30.4601879217   114.5707561937     14.966    3.80301337    2.17144779  294.07646431 
453575.000    30.4602803934   114.5705156867     15.260    3.58905547    2.43578193  293.74408521 
453576.000    30.4603717484   114.5702749573     15.652    3.74313102    2.57769109  293.47592355 
453577.000    30.4604617830   114.5700335620     16.097    3.84012621    2.80806739  292.98819569 
453578.000    30.4605505390   114.5697913658     16.633    3.78068493    2.77633763  292.67959044 
453579.000    30.4606385872   114.5695490217     17.166    4.15122836    2.97356593  292.51825682 
453580.000    30.4607259237   114.5693065711     17.777    3.70626912    2.95243995  292.31886455 
453581.000    30.4608122242   114.5690639573     18.386    3.95269877    2.93953395  291.99192229 
453582.000    30.4608972539   114.5688214914     18.954    4.16617689    2.94512214  291.74063597 
453583.000    30.4609813780   114.5685790021     19.532    4.37561859    2.97287808  291.40100762 
453584.000    30.4610639569   114.5683358761     20.110    3.97259119    3.09241616  291.04271149 
453585.000    30.4611454199   114.5680921238     20.719    3.91305500    3.09633678  290.69523672 
453586.000    30.4612255673   114.5678480963     21.247    3.96031143    3.07350133  290.32708541 
453587.000    30.4613040216   114.5676041532     21.793    3.74422470    2.82186197  289.91370941 
453588.000    30.4613810323   114.5673593857     22.274    3.82029665    2.77464217  289.44893962 
453589.000    30.4614568270   114.5671133357     22.724    3.90644995    2.67507812  289.08584511 
453590.000    30.4615315991   114.5668657654     23.110    4.27026303    2.44072397  288.56610839 
453591.000    30.4616047780   114.5666160982     23.462    4.51610518    2.50833069  288.10824286 
453592.000    30.4616772339   114.5663644369     23.778    4.34144870    2.46610252  287.77713283 
453593.000    30.4617487691   114.5661106864     24.049    3.98530380    2.36803974  287.35165481 
453594.000    30.4618192389   114.5658544897     24.273    3.79818583    2.18565231  286.96498516 
453595.000    30.4618897950   114.5655965307     24.447    3.78237801    2.01832626  286.88786451 
453596.000    30.4619601037   114.5653382630     24.595    3.94198406    1.98462986  286.77073005 
453597.000    30.4620297361   114.5650824687     24.681    3.71789050    1.77068233  286.82490987 
453598.000    30.4620986892   114.5648296215     24.746    4.02744714    1.79731945  286.71035823 
453599.000    30.4621655224   114.5645786999     24.762    4.08743307    1.64140231  286.22305632 
453600.000    30.4622304821   114.5643297754     24.723    3.99250210    1.45081883  285.95563919 
453601.000    30.4622937481   114.5640830294     24.668    4.14702681    1.43217063  285.68506243 
453602.000    30.4623554581   114.5638378464     24.578    3.95443427    1.31737865  285.40487314 
453603.000    30.4624156124   114.5635945671     24.493    4.27969130    1.18277997  285.02991556 
453604.000    30.4624735817   114.5633550232     24.436    4.12600462    1.33393724  284.76167413 
453605.000    30.4625295953   114.5631193642     24.351    4.06630979    1.28664887  284.55047595 
453606.000    30.4625843500   114.5628871515     24.280    4.10412597    1.31227785  284.46371371 
453607.000    30.4626384947   114.5626567905     24.214    4.03253147    1.37936467  284.39130024 
453608.000    30.4626923962   114.5624269334     24.184    3.95642655    1.43869329  284.37002950 
453609.000    30.4627465877   114.5621972452     24.158    3.80982619    1.49372375  284.48925369 
453610.000    30.4628012213   114.5619675587     24.124    3.79868187    1.43182301  284.53681930 
453611.000    30.4628562446   114.5617360157     24.066    3.90574771    1.48788327  284.37088927 
453612.000    30.4629113652   114.5615012528     23.977    3.97899845    1.50522039  284.21146727 
453613.000    30.4629673564   114.5612629678     23.853    3.81295006    1.52855928  284.29732561 
453614.000    30.4630246467   114.5610212108     23.753    3.82867968    1.54589213  284.38243674 
453615.000    30.4630830826   114.5607760680     23.663    3.90359804    1.55147098  284.42109604 
453616.000    30.4631423586   114.5605277680     23.570    3.87403635    1.49816984  284.41845658 
453617.000    30.4632018182   114.5602799828     23.501    3.90934403    1.38917463  284.61298091 
453618.000    30.4632615827   114.5600343566     23.414    4.04059905    1.35893180  284.62980576 
453619.000    30.4633208560   114.5597905182     23.321    3.95275081    1.31635938  284.63563880 
453620.000    30.4633795409   114.5595501737     23.243    4.05959155    1.43976207  284.69397132 
453621.000    30.4634380928   114.5593105899     23.205    3.99068012    1.57362531  284.62437887 
453622.000    30.4634964431   114.5590699487     23.248    4.05531305    1.51031958  284.41420972 
453623.000    30.4635534783   114.5588295576     23.412    3.91267017    1.45902447  284.25910495 
453624.000    30.4636085010   114.5585906477     23.691    3.83114116    1.52609671  284.11808329 
453625.000    30.4636622723   114.5583533156     23.993    3.72769219    1.41945826  284.08426781 
453626.000    30.4637159814   114.5581171238     24.229    3.87565688    1.53280343  284.05605384 
453627.000    30.4637706188   114.5578805051     24.348    3.88180406    1.55580658  284.08851174 
453628.000    30.4638266718   114.5576417785     24.362    3.90092506    1.48175437  284.07926373 
453629.000    30.4638839128   114.5574003443     24.302    3.97557935    1.45826016  284.07500955 
453630.000    30.4639419452   114.5571579077     24.189    3.96700686    1.23805986  284.14901271 
453631.000    30.4640000188   114.5569191263     24.009    3.92105447    1.08356907  284.17925275 
453632.000    30.4640583586   114.5566837493     23.702    3.78697732    1.32811267  284.36324277 
453633.000    30.4641184507   114.5564485443     23.235    3.63884806    1.34110592  284.72510879 
453634.000    30.4641806261   114.5562123320     22.748    3.64710765    1.53130037  285.20708236 
453635.000    30.4642432472   114.5559746762     22.364    3.93603967    1.47524817  285.29191184 
453636.000    30.4643045998   114.5557394444     22.099    3.72440750    1.14055174  285.35064415 
453637.000    30.4643651698   114.5555074906     21.945    3.53924007    1.56088852  285.54696449 
453638.000    30.4644264638   114.5552756041     21.892    4.02857120    1.47959898  285.52092822 
453639.000    30.4644880373   114.5550412116     21.873    3.89778513    1.58496156  285.39739063 
453640.000    30.4645502524   114.5548036091     21.831    4.29428139    1.48440836  285.38224636 
453641.000    30.4646143538   114.5545627855     21.726    4.00075491    1.71097393  285.81132611 
453642.000    30.4646805046   114.5543198530     21.686    4.08009756    1.36330923  286.07965936 
453643.000    30.4647472603   114.5540777344     21.618    4.12651789    1.47798743  286.14817094 
453644.000    30.4648137551   114.5538358542     21.536    3.98806234    1.43082526  286.02816588 
453645.000    30.4648789854   114.5535969660     21.455    4.17916655    1.38222381  285.86614130 
453646.000    30.4649435715   114.5533618013     21.393    3.98879873    1.70283062  286.17311602 
453647.000    30.4650087774   114.5531301831     21.333    4.00365694    1.29868724  286.46275543 
453648.000    30.4650738489   114.5529027957     21.231    3.87221544    1.30066671  286.85771551 
453649.000    30.4651395267   114.5526786089     21.163    3.81310117    1.49525737  287.23468344 
453650.000    30.4652044100   114.5524567469     21.091    4.13499308    1.34172044  286.65267365 
453651.000    30.4652670526   114.5522382349     21.017    3.94874286    1.32243309  286.65391485 
453652.000    30.4653288250   114.5520236233     20.942    3.97293367    1.41158244  286.72689292 
453653.000    30.4653900288   114.5518129615     20.881    3.94942147    1.36890406  286.95470574 
453654.000    30.4654512344   114.5516065930     20.822    4.05332892    1.46714912  287.30180180 
453655.000    30.4655125632   114.5514040589     20.744    4.03077986    1.54488375  287.66196872 
453656.000    30.4655739657   114.5512026062     20.692    4.21877387    1.46229320  287.55874460 
453657.000    30.4656350586   114.5510003772     20.620    4.44512016    1.57236759  287.27013914 
453658.000    30.4656961371   114.5507966466     20.564    4.39061100    1.54894115  287.26646080 
453659.000    30.4657586525   114.5505901166     20.499    4.36846870    1.54273794  287.51570077 
453660.000    30.4658231554   114.5503800255     20.436    4.33404904    1.64444438  287.72436219 
453661.000    30.4658891157   114.5501659048     20.376    4.13103754    1.59211171  287.64411821 
453662.000    30.4659560468   114.5499477010     20.351    4.12924823    1.65424481  287.56562077 
453663.000    30.4660249918   114.5497257978     20.258    4.05871135    1.59279886  287.88066140 
453664.000    30.4660954464   114.5495004397     20.196    4.28393024    1.56179742  287.95562055 
453665.000    30.4661673486   114.5492761533     20.126    4.23690008    1.37449343  288.68010853 
453666.000    30.4662403999   114.5490547746     20.047    4.13045348    1.61394793  288.89852066 
453667.000    30.4663138567   114.5488327591     20.011    4.52777515    1.69626831  288.74700451 
453668.000    30.4663872668   114.5486075107     19.909    4.05940671    1.57919537  288.53404873 
453669.000    30.4664616461   114.5483784535     19.831    4.33215715    1.73398696  288.52989528 
453670.000    30.4665381958   114.5481459368     19.759    4.46117615    1.58311953  288.98436350 
453671.000    30.4666171865   114.5479100628     19.636    4.40774028    1.47804657  289.08172229 
453672.000    30.4666974438   114.5476707660     19.491    4.05493856    1.25438069  289.09676005 
453673.000    30.4667784963   114.5474297754     19.296    4.23543617    1.21560027  289.14468456 
453674.000    30.4668608167   114.5471868203     19.065    4.11409371    1.22507352  289.34526717 
453675.000    30.4669442113   114.5469432549     18.829    4.25381554    1.14996850  289.53201274 
453676.000    30.4670285090   114.5466988317     18.563    4.21160950    0.93648763  289.58695092 
453677.000    30.4671136570   114.5464529049     18.268    4.32276996    0.91395184  289.63629188 
453678.000    30.4671991844   114.5462070179     17.998    4.24889932    1.01779169  289.84882292 
453679.000    30.4672861711   114.5459611832     17.695    4.20336305    1.01072833  290.17291213 
453680.000    30.4673747426   114.5457140955     17.395    4.28745681    1.06787011  290.33940614 
453681.000    30.4674639930   114.5454659322     17.042    4.25159620    0.97940541  290.32256619 
453682.000    30.4675534860   114.5452172048     16.707    4.38017380    0.94229893  290.32470438 
453683.000    30.4676432278   114.5449679992     16.359    4.45188324    0.87979392  290.30749951 
453684.000    30.4677328293   114.5447192729     16.030    4.33794713    1.11056465  290.29013158 
453685.000    30.4678227434   114.5444688692     15.746    4.11384458    1.27782915  290.08194896 
453686.000    30.4679127505   114.5442157260     15.323    4.16248000    1.36806602  289.95793369 
453687.000    30.4680035385   114.5439596729     15.002    4.48869857    0.97841157  289.89261469 
453688.000    30.4680946537   114.5437023613     14.732    4.27533954    1.21460522  289.92263238 
453689.000    30.4681864055   114.5434438000     14.525    4.37368637    1.26921189  289.93009015 
453690.000    30.4682788085   114.5431840025     14.255    4.34593339    1.11308463  290.02916332 
453691.000    30.4683719820   114.5429231830     13.948    4.20103367    0.87011780  290.03022733 
453692.000    30.4684646990   114.5426635149     13.632    4.13909262    0.98458866  290.00921027 
453693.000    30.4685570506   114.5424049761     13.317    4.26631914    0.92948123  289.99755170 
453694.000    30.4686494725   114.5421470502     12.975    4.40637923    0.85896132  290.06637994 
453695.000    30.4687421994   114.5418885542     12.623    4.37685987    0.96221386  290.04751277 
453696.000    30.4688353879   114.5416284046     12.320    4.35720583    1.01902069  289.93568406 
453697.000    30.4689287665   114.5413657953     12.047    4.36841435    1.18656301  289.77848732 
453698.000    30.4690227200   114.5411005262     11.789    4.34469047    1.33831498  289.72309489 
453699.000    30.4691175715   114.5408326420     11.576    4.27864971    1.30572021  289.71794481 
453700.000    30.4692134317   114.5405621512     11.368    4.27023839    1.28630739  289.68193962 
453701.000    30.4693103646   114.5402890876     11.138    4.23946356    1.36061902  289.82608658 
453702.000    30.4694087148   114.5400145268     10.922    4.29763373    1.25650905  289.94202180 
453703.000    30.4695070943   114.5397403958     10.735    4.45882416    1.32833073  289.84996366 
