
   GPSTime         Latitude        Longitude      H-Ell      Vel-N      Vel-E    Vel-U       Q  
     (sec)            (Deg)            (Deg)        (m)      (m/s)      (m/s)    (m/s)          
 23157.000    39.7193244289   116.3384553951     29.745    -12.288     -2.409   -0.084       1 
 23158.000    39.7192148703   116.3384247722     29.629    -12.115     -2.568   -0.104       1 
 23159.000    39.7191059348   116.3383971617     29.575    -12.083     -2.251   -0.030       1 
 23160.000    39.7189961094   116.3383714594     29.547    -12.388     -2.230   -0.042       1 
 23161.000    39.7188819487   116.3383443197     29.523    -12.985     -2.420   -0.026       1 
 23162.000    39.7187625686   116.3383144249     29.497    -13.540     -2.658   -0.013       1 
 23163.000    39.7186379950   116.3382819425     29.493    -14.149     -2.872    0.008       1 
 23164.000    39.7185088713   116.3382476735     29.484    -14.372     -2.940   -0.053       1 
 23165.000    39.7183803078   116.3382152390     29.483    -14.153     -2.678    0.013       1 
 23166.000    39.7182538630   116.3381837196     29.494    -13.939     -2.661    0.032       1 
 23167.000    39.7181291944   116.3381545284     29.547    -13.729     -2.380    0.050       1 
 23168.000    39.7180069189   116.3381267088     29.597    -13.435     -2.382    0.068       1 
 23169.000    39.7178878275   116.3380984107     29.670    -12.992     -2.443    0.071       1 
 23170.000    39.7177737603   116.3380703306     29.745    -12.257     -2.327    0.060       0 
 23171.000    39.7176678600   116.3380449448     29.796    -11.252     -2.018    0.025       1 
 23172.000    39.7175702168   116.3380226614     29.861    -10.512     -1.819    0.075       1 
 23173.000    39.7174778666   116.3380022070     29.910    -10.053     -1.710    0.027       1 
 23174.000    39.7173888086   116.3379823873     29.950     -9.712     -1.705   -0.014       1 
 23175.000    39.7173029729   116.3379626146     29.979     -9.283     -1.671    0.039       1 
 23176.000    39.7172218297   116.3379432803     29.997     -8.742     -1.611   -0.021       1 
 23177.000    39.7171458723   116.3379247693     29.995     -8.058     -1.530   -0.009       1 
 23178.000    39.7170774184   116.3379076299     29.994     -7.186     -1.399   -0.009       1 
 23179.000    39.7170148148   116.3378919172     29.997     -6.744     -1.264    0.046       1 
 23180.000    39.7169576726   116.3378786006     30.038     -5.771     -1.031    0.022       1 
 23181.000    39.7169103664   116.3378674760     30.043     -4.756     -0.850    0.023       1 
 23182.000    39.7168706442   116.3378582623     30.061     -4.271     -0.766   -0.043       1 
 23183.000    39.7168324725   116.3378490770     30.054     -4.239     -0.794    0.012       1 
 23184.000    39.7167944616   116.3378391177     30.062     -4.223     -0.863    0.004       1 
 23185.000    39.7167569501   116.3378287104     30.056     -4.125     -0.869   -0.014       0 
 23186.000    39.7167198171   116.3378181202     30.059     -4.260     -0.940    0.011       0 
 23187.000    39.7166783614   116.3378062887     30.073     -4.987     -1.093   -0.021       0 
 23188.000    39.7166289212   116.3377918946     30.077     -5.969     -1.368    0.019       0 
 23189.000    39.7165708720   116.3377739058     30.083     -6.917     -1.689    0.031       0 
 23190.000    39.7165043397   116.3377515560     30.109     -7.891     -2.053    0.002       1 
 23191.000    39.7164285077   116.3377264088     30.123     -8.954     -2.250    0.096       1 
 23192.000    39.7163426314   116.3376993496     30.129    -10.102     -2.411   -0.085       1 
 23193.000    39.7162459110   116.3376715074     30.092    -11.332     -2.385   -0.053       1 
 23194.000    39.7161385963   116.3376445847     30.112    -12.452     -2.326    0.031       1 
 23195.000    39.7160222361   116.3376154320     30.125    -13.389     -2.706    0.006       1 
 23196.000    39.7158995243   116.3375787430     30.172    -13.785     -3.473    0.053       1 
 23197.000    39.7157742930   116.3375340719     30.204    -14.136     -3.980    0.083       1 
 23198.000    39.7156442906   116.3374868417     30.267    -14.749     -4.138    0.064       1 
 23199.000    39.7155086189   116.3374370519     30.339    -15.378     -4.434    0.136       1 
 23200.000    39.7153686513   116.3373818980     30.505    -15.737     -4.969    0.187       1 
 23201.000    39.7152256002   116.3373205485     30.692    -16.004     -5.456    0.208       1 
 23202.000    39.7150826421   116.3372542437     30.893    -15.706     -5.822    0.194       1 
 23203.000    39.7149423791   116.3371840733     31.099    -15.571     -6.160    0.215       1 
 23204.000    39.7148010718   116.3371098073     31.334    -15.848     -6.531    0.246       1 
 23205.000    39.7146568747   116.3370307282     31.600    -16.217     -7.005    0.279       1 
 23206.000    39.7145099645   116.3369450033     31.903    -16.446     -7.625    0.357       1 
 23207.000    39.7143609512   116.3368523669     32.244    -16.687     -8.167    0.336       1 
 23208.000    39.7142103278   116.3367543417     32.602    -16.720     -8.573    0.379       1 
 23209.000    39.7140606452   116.3366513777     32.989    -16.573     -9.042    0.412       1 
 23210.000    39.7139122815   116.3365429071     33.392    -16.407     -9.470    0.435       1 
 23211.000    39.7137656107   116.3364304517     33.828    -16.190     -9.759    0.426       1 
 23212.000    39.7136204205   116.3363146187     34.247    -16.085    -10.065    0.432       1 
 23213.000    39.7134763202   116.3361955842     34.695    -15.923    -10.316    0.460       1 
 23214.000    39.7133337017   116.3360733979     35.168    -15.823    -10.630    0.485       1 
 23215.000    39.7131909366   116.3359465684     35.661    -15.915    -11.087    0.493       1 
 23216.000    39.7130483680   116.3358156932     36.147    -15.700    -11.284    0.491       1 
 23217.000    39.7129082945   116.3356830735     36.604    -15.456    -11.432    0.448       1 
 23218.000    39.7127697787   116.3355482705     37.022    -15.366    -11.671    0.410       1 
 23219.000    39.7126308992   116.3354100392     37.428    -15.511    -12.026    0.378       1 
 23220.000    39.7124900804   116.3352672849     37.797    -15.774    -12.443    0.367       1 
 23221.000    39.7123478531   116.3351200232     38.126    -15.699    -12.664    0.295       1 
 23222.000    39.7122082927   116.3349726561     38.420    -15.330    -12.593    0.291       1 
 23223.000    39.7120705815   116.3348256763     38.687    -15.276    -12.629    0.233       1 
 23224.000    39.7119331508   116.3346783756     38.908    -15.208    -12.615    0.188       1 
 23225.000    39.7117963472   116.3345310629     39.086    -15.225    -12.663    0.211       1 
 23226.000    39.7116585314   116.3343828754     39.320    -15.364    -12.732    0.201       1 
 23227.000    39.7115198380   116.3342345487     39.457    -15.411    -12.703    0.101       1 
 23228.000    39.7113809236   116.3340865304     39.549    -15.417    -12.665    0.094       1 
 23229.000    39.7112423221   116.3339389288     39.606    -15.379    -12.678    0.006       1 
 23230.000    39.7111034431   116.3337899086     39.601    -15.474    -12.875   -0.025       1 
 23231.000    39.7109641442   116.3336403271     39.562    -15.419    -12.729   -0.066       1 
 23232.000    39.7108257188   116.3334928896     39.446    -15.290    -12.599   -0.220       1 
 23233.000    39.7106881616   116.3333461764     39.275    -15.228    -12.570   -0.146       0 
 23234.000    39.7105512983   116.3331997065     39.130    -15.211    -12.596   -0.143       0 
 23235.000    39.7104131003   116.3330511218     38.969    -15.491    -12.894   -0.181       0 
 23236.000    39.7102724410   116.3328994643     38.764    -15.742    -13.103   -0.231       0 
 23237.000    39.7101299824   116.3327463357     38.523    -15.870    -13.137   -0.257       0 
 23238.000    39.7099869041   116.3325936404     38.302    -15.886    -13.067   -0.321       0 
 23239.000    39.7098440114   116.3324417352     37.945    -15.813    -12.998   -0.289       0 
 23240.000    39.7097020606   116.3322898411     37.601    -15.722    -13.036   -0.351       0 
 23241.000    39.7095609984   116.3321375305     37.223    -15.618    -13.055   -0.390       1 
 23242.000    39.7094205494   116.3319856224     36.829    -15.580    -12.998   -0.405       1 
 23243.000    39.7092801152   116.3318341351     36.429    -15.620    -12.984   -0.393       1 
 23244.000    39.7091392781   116.3316826792     36.013    -15.657    -12.985   -0.345       1 
 23245.000    39.7089984498   116.3315312631     35.609    -15.610    -12.996   -0.421       1 
 23246.000    39.7088582201   116.3313795044     35.188    -15.538    -13.037   -0.417       1 
 23247.000    39.7087178231   116.3312268155     34.779    -15.672    -13.183   -0.427       1 
 23248.000    39.7085751446   116.3310719368     34.360    -16.030    -13.395   -0.391       1 
 23249.000    39.7084290008   116.3309142267     33.958    -16.419    -13.648   -0.404       0 
 23250.000    39.7082794540   116.3307535329     33.560    -16.778    -13.894   -0.357       1 
 23251.000    39.7081269840   116.3305904225     33.191    -17.044    -14.080   -0.349       1 
 23252.000    39.7079720754   116.3304253084     32.847    -17.339    -14.255   -0.284       1 
 23253.000    39.7078146979   116.3302575880     32.529    -17.619    -14.507   -0.313       1 
 23254.000    39.7076557552   116.3300879215     32.207    -17.634    -14.545   -0.302       1 
 23255.000    39.7074976736   116.3299189204     31.892    -17.470    -14.446   -0.290       1 
 23256.000    39.7073412819   116.3297512781     31.622    -17.280    -14.309   -0.266       1 
 23257.000    39.7071865729   116.3295851577     31.367    -17.092    -14.189   -0.231       1 
 23258.000    39.7070330832   116.3294200872     31.131    -16.998    -14.123   -0.178       1 
 23259.000    39.7068805003   116.3292561364     30.941    -16.890    -13.999   -0.192       0 
 23260.000    39.7067288033   116.3290937113     30.762    -16.794    -13.860   -0.163       0 
 23261.000    39.7065780445   116.3289329303     30.611    -16.677    -13.733   -0.139       0 
 23262.000    39.7064283838   116.3287737700     30.485    -16.559    -13.563   -0.085       0 
 23263.000    39.7062799986   116.3286167307     30.390    -16.393    -13.366   -0.095       1 
 23264.000    39.7061333195   116.3284622099     30.319    -16.161    -13.125   -0.074       1 
 23265.000    39.7059887493   116.3283106258     30.261    -15.929    -12.867   -0.041       1 
 23266.000    39.7058466200   116.3281616960     30.217    -15.630    -12.668   -0.042       1 
 23267.000    39.7057071428   116.3280152314     30.199    -15.329    -12.445    0.001       1 
 23268.000    39.7055705696   116.3278716952     30.199    -15.006    -12.162    0.010       1 
 23269.000    39.7054364668   116.3277318971     30.205    -14.763    -11.825    0.007       1 
 23270.000    39.7053040440   116.3275957364     30.218    -14.645    -11.576    0.025       1 
 23271.000    39.7051726728   116.3274618788     30.236    -14.519    -11.392    0.020       1 
 23272.000    39.7050423306   116.3273303386     30.248    -14.419    -11.174    0.024       1 
 23273.000    39.7049127773   116.3272014399     30.267    -14.330    -10.950    0.025       1 
 23274.000    39.7047841109   116.3270750791     30.284    -14.233    -10.730    0.019       1 
 23275.000    39.7046563022   116.3269513740     30.302    -14.139    -10.497    0.030       1 
 23276.000    39.7045292700   116.3268304183     30.318    -14.061    -10.265    0.010       1 
 23277.000    39.7044026884   116.3267117384     30.334    -14.047    -10.140    0.019       1 
 23278.000    39.7042761374   116.3265939207     30.349    -14.079    -10.097    0.017       1 
 23279.000    39.7041482726   116.3264761531     30.383    -14.380    -10.140    0.076       1 
 23280.000    39.7040167089   116.3263582054     30.433    -14.766    -10.099    0.053       1 
 23281.000    39.7038833605   116.3262423928     30.492    -14.784     -9.784    0.074       0 
 23282.000    39.7037502550   116.3261298433     30.558    -14.818     -9.586    0.081       0 
 23283.000    39.7036151864   116.3260181641     30.623    -15.153     -9.603    0.084       0 
 23284.000    39.7034781031   116.3259072722     30.687    -15.203     -9.419    0.029       0 
 23285.000    39.7033417188   116.3257983543     30.702    -15.093     -9.246    0.057       1 
 23286.000    39.7032047679   116.3256934262     30.782    -15.337     -8.904    0.020       1 
 23287.000    39.7030648610   116.3255893789     30.828    -15.719     -9.025    0.072       1 
 23288.000    39.7029210924   116.3254838767     30.863    -16.225     -9.070    0.022       1 
 23289.000    39.7027715673   116.3253802707     30.844    -16.928     -8.755   -0.038       1 
 23290.000    39.7026159748   116.3252797564     30.824    -17.544     -8.629   -0.017       1 
 23291.000    39.7024553948   116.3251785200     30.781    -18.111     -8.723   -0.045       1 
 23292.000    39.7022897927   116.3250763646     30.733    -18.639     -8.849   -0.028       1 
 23293.000    39.7021200202   116.3249707104     30.699    -19.090     -9.186   -0.052       1 
 23294.000    39.7019457942   116.3248628390     30.668    -19.601     -9.291   -0.030       1 
 23295.000    39.7017667558   116.3247545756     30.651    -20.129     -9.277   -0.028       1 
 23296.000    39.7015839219   116.3246466431     30.641    -20.450     -9.267    0.007       1 
 23297.000    39.7014000641   116.3245386195     30.652    -20.331     -9.225    0.014       1 
 23298.000    39.7012179311   116.3244329588     30.641    -20.115     -8.862   -0.001       1 
 23299.000    39.7010369149   116.3243334089     30.627    -20.068     -8.283   -0.032       1 
 23300.000    39.7008546268   116.3242390722     30.618    -20.428     -7.976   -0.007       1 
 23301.000    39.7006686555   116.3241481542     30.594    -20.826     -7.659   -0.014       1 
 23302.000    39.7004794437   116.3240604433     30.574    -21.180     -7.416   -0.031       1 
 23303.000    39.7002869500   116.3239753190     30.514    -21.487     -7.195   -0.016       0 
 23304.000    39.7000936287   116.3238942588     30.507    -21.376     -6.755   -0.029       0 
 23305.000    39.6999019015   116.3238186014     30.472    -21.172     -6.270   -0.046       0 
 23306.000    39.6997116816   116.3237491374     30.462    -21.047     -5.717   -0.012       0 
 23307.000    39.6995225793   116.3236854767     30.429    -20.916     -5.281   -0.044       0 
 23308.000    39.6993351018   116.3236251808     30.394    -20.698     -5.130   -0.084       0 
 23309.000    39.6991495173   116.3235666976     30.358    -20.510     -4.894   -0.025       0 
 23310.000    39.6989653948   116.3235121174     30.317    -20.364     -4.501   -0.024       0 
 23311.000    39.6987825378   116.3234626052     30.275    -20.214     -4.063   -0.053       0 
 23312.000    39.6986011052   116.3234178968     30.248    -20.055     -3.671    0.018       0 
 23313.000    39.6984213079   116.3233770487     30.209    -19.844     -3.415   -0.051       0 
 23314.000    39.6982440146   116.3233369104     30.137    -19.492     -3.426   -0.077       0 
 23315.000    39.6980720263   116.3232972899     30.073    -18.625     -3.351   -0.076       0 
 23316.000    39.6979094251   116.3232576310     30.004    -17.505     -3.421   -0.103       0 
 23317.000    39.6977573345   116.3232157737     29.924    -16.248     -3.728   -0.129       0 
 23318.000    39.6976181492   116.3231680077     29.803    -14.721     -4.287   -0.183       0 
 23319.000    39.6974934241   116.3231138131     29.655    -13.004     -4.819   -0.145       1 
 23320.000    39.6973858679   116.3230508590     29.558    -11.193     -5.765   -0.061       1 
 23321.000    39.6972943142   116.3229717373     29.583     -9.537     -7.371    0.083       1 
 23322.000    39.6972178485   116.3228735576     29.634     -7.801     -8.931    0.066       1 
 23323.000    39.6971575960   116.3227604219     29.723     -6.039    -10.025    0.130       1 
 23324.000    39.6971108423   116.3226369106     29.894     -4.667    -10.988    0.210       1 
 23325.000    39.6970778242   116.3225021625     30.148     -2.970    -11.878    0.297       1 
 23326.000    39.6970593315   116.3223585554     30.501     -1.367    -12.567    0.402       1 
 23327.000    39.6970583412   116.3222095703     30.916      0.817    -12.694    0.407       1 
 23328.000    39.6970764251   116.3220632749     31.336      2.818    -12.207    0.410       1 
 23329.000    39.6971115848   116.3219244389     31.757      4.678    -11.475    0.425       1 
 23330.000    39.6971629144   116.3217954471     32.175      6.427    -10.538    0.406       1 
 23331.000    39.6972295067   116.3216784324     32.602      8.114     -9.453    0.416       1 
 23332.000    39.6973100878   116.3215756898     33.023      9.499     -8.155    0.451       1 
 23333.000    39.6974020424   116.3214885881     33.451     10.765     -6.680    0.424       1 
 23334.000    39.6975045905   116.3214213695     33.858     11.766     -4.810    0.432       1 
 23335.000    39.6976132885   116.3213772879     34.279     12.212     -2.796    0.437       1 
 23336.000    39.6977247544   116.3213557073     34.696     12.432     -0.852    0.403       1 
 23337.000    39.6978358376   116.3213573153     35.078     12.154      1.123    0.363       1 
 23338.000    39.6979428288   116.3213812450     35.420     11.613      2.980    0.315       1 
 23339.000    39.6980446438   116.3214252486     35.721     11.082      4.627    0.266       1 
 23340.000    39.6981413977   116.3214888202     35.981     10.468      6.313    0.230       1 
 23341.000    39.6982307392   116.3215709665     36.196      9.413      7.834    0.200       1 
 23342.000    39.6983092695   116.3216701181     36.362      8.207      9.278    0.157       1 
 23343.000    39.6983779099   116.3217862825     36.512      7.111     10.796    0.210       1 
 23344.000    39.6984358944   116.3219195870     36.694      5.870     12.212    0.207       1 
 23345.000    39.6984838454   116.3220677288     36.886      4.876     13.343    0.167       1 
 23346.000    39.6985219144   116.3222291668     37.014      3.735     14.461    0.115       1 
 23347.000    39.6985544603   116.3224019958     37.137      3.594     15.251    0.100       1 
 23348.000    39.6985869641   116.3225840766     37.255      3.732     15.976    0.098       1 
 23349.000    39.6986227895   116.3227743941     37.351      4.215     16.641    0.107       1 
 23350.000    39.6986628222   116.3229725509     37.440      4.614     17.340    0.104       1 
 23351.000    39.6987044710   116.3231792438     37.557      4.590     18.131    0.098       1 
 23352.000    39.6987450778   116.3233949002     37.648      4.478     18.882    0.063       1 
 23353.000    39.6987849885   116.3236192205     37.778      4.404     19.566    0.074       1 
 23354.000    39.6988241284   116.3238498693     37.807      4.347     20.049    0.040       1 
 23355.000    39.6988636245   116.3240869562     37.790      4.425     20.602   -0.061       1 
 23356.000    39.6989037930   116.3243295929     37.744      4.447     20.982   -0.001       1 
 23357.000    39.6989440518   116.3245749635     37.692      4.475     21.159   -0.047       1 
 23358.000    39.6989844647   116.3248225946     37.653      4.493     21.320   -0.043       1 
 23359.000    39.6990243888   116.3250709168     37.604      4.375     21.257   -0.071       1 
 23360.000    39.6990637846   116.3253173560     37.532      4.404     20.983   -0.105       1 
