
   GPSTime         Latitude        Longitude      H-Ell      Vel-N      Vel-E    Vel-U       Q  
     (sec)            (Deg)            (Deg)        (m)      (m/s)      (m/s)    (m/s)          
 23157.000    39.7193289019   116.3384588129     30.043    -12.283     -2.434   -0.093       1 
 23158.000    39.7192192959   116.3384282536     29.930    -12.117     -2.573   -0.111       1 
 23159.000    39.7191104544   116.3384004637     29.874    -12.085     -2.245   -0.031       1 
 23160.000    39.7190006474   116.3383747464     29.844    -12.386     -2.235   -0.042       1 
 23161.000    39.7188864842   116.3383476438     29.817    -12.981     -2.421   -0.018       1 
 23162.000    39.7187670691   116.3383178069     29.792    -13.543     -2.659   -0.022       1 
 23163.000    39.7186424827   116.3382853594     29.788    -14.153     -2.881   -0.007       1 
 23164.000    39.7185133496   116.3382510780     29.782    -14.374     -2.926   -0.047       1 
 23165.000    39.7183848240   116.3382185613     29.781    -14.154     -2.686    0.004       1 
 23166.000    39.7182583832   116.3381870379     29.791    -13.943     -2.649    0.033       1 
 23167.000    39.7181337631   116.3381577461     29.843    -13.743     -2.358    0.036       1 
 23168.000    39.7180114813   116.3381299468     29.892    -13.433     -2.393    0.064       1 
 23169.000    39.7178923596   116.3381017335     29.965    -12.988     -2.446    0.078       1 
 23170.000    39.7177782826   116.3380736537     30.042    -12.250     -2.329    0.072       0 
 23171.000    39.7176723969   116.3380482376     30.093    -11.248     -2.013    0.039       1 
 23172.000    39.7175747877   116.3380258952     30.155    -10.514     -1.818    0.072       1 
 23173.000    39.7174824459   116.3380054037     30.206    -10.049     -1.704    0.039       1 
 23174.000    39.7173933697   116.3379856227     30.246     -9.709     -1.700   -0.003       1 
 23175.000    39.7173075173   116.3379659038     30.274     -9.284     -1.669    0.039       1 
 23176.000    39.7172263515   116.3379465768     30.296     -8.736     -1.614   -0.012       1 
 23177.000    39.7171503763   116.3379280958     30.295     -8.063     -1.532   -0.021       1 
 23178.000    39.7170819156   116.3379109755     30.293     -7.184     -1.400   -0.006       1 
 23179.000    39.7170193429   116.3378952302     30.294     -6.752     -1.264    0.027       1 
 23180.000    39.7169622216   116.3378818631     30.334     -5.769     -1.020    0.033       1 
 23181.000    39.7169149097   116.3378707328     30.341     -4.762     -0.844    0.015       1 
 23182.000    39.7168751982   116.3378615144     30.357     -4.264     -0.771   -0.033       1 
 23183.000    39.7168369897   116.3378523712     30.354     -4.235     -0.803    0.013       1 
 23184.000    39.7167989405   116.3378425499     30.358     -4.222     -0.871    0.002       1 
 23185.000    39.7167614144   116.3378321875     30.350     -4.132     -0.881   -0.037       0 
 23186.000    39.7167242660   116.3378216319     30.353     -4.260     -0.953    0.001       0 
 23187.000    39.7166828188   116.3378098085     30.365     -4.979     -1.100   -0.008       0 
 23188.000    39.7166333594   116.3377954504     30.369     -5.967     -1.367    0.025       0 
 23189.000    39.7165752582   116.3377775534     30.377     -6.918     -1.687    0.029       0 
 23190.000    39.7165087215   116.3377552427     30.400     -7.884     -2.051    0.019       1 
 23191.000    39.7164328941   116.3377300829     30.414     -8.960     -2.258    0.076       1 
 23192.000    39.7163470296   116.3377029335     30.426    -10.099     -2.383   -0.058       1 
 23193.000    39.7162503917   116.3376749237     30.389    -11.337     -2.364   -0.048       1 
 23194.000    39.7161431451   116.3376478614     30.407    -12.451     -2.334    0.029       1 
 23195.000    39.7160267384   116.3376188134     30.421    -13.386     -2.723   -0.000       1 
 23196.000    39.7159038985   116.3375824162     30.465    -13.773     -3.499    0.058       1 
 23197.000    39.7157786089   116.3375378472     30.499    -14.140     -3.973    0.080       1 
 23198.000    39.7156486120   116.3374905857     30.564    -14.752     -4.135    0.059       1 
 23199.000    39.7155129249   116.3374408361     30.635    -15.377     -4.453    0.125       1 
 23200.000    39.7153728893   116.3373858411     30.797    -15.733     -4.981    0.186       1 
 23201.000    39.7152297663   116.3373246117     30.985    -16.002     -5.469    0.201       1 
 23202.000    39.7150867152   116.3372584480     31.188    -15.694     -5.846    0.201       1 
 23203.000    39.7149464006   116.3371883772     31.392    -15.568     -6.161    0.220       1 
 23204.000    39.7148050466   116.3371141938     31.625    -15.844     -6.545    0.242       1 
 23205.000    39.7146607966   116.3370352035     31.890    -16.215     -7.016    0.275       1 
 23206.000    39.7145137972   116.3369496209     32.191    -16.449     -7.633    0.344       1 
 23207.000    39.7143647153   116.3368570729     32.533    -16.681     -8.173    0.345       1 
 23208.000    39.7142140224   116.3367591412     32.891    -16.713     -8.585    0.384       1 
 23209.000    39.7140642428   116.3366563040     33.277    -16.570     -9.055    0.407       1 
 23210.000    39.7139157968   116.3365479369     33.680    -16.405     -9.478    0.435       1 
 23211.000    39.7137690481   116.3364355687     34.116    -16.185     -9.765    0.434       1 
 23212.000    39.7136237906   116.3363198110     34.535    -16.087    -10.071    0.425       1 
 23213.000    39.7134796252   116.3362008581     34.982    -15.917    -10.327    0.463       1 
 23214.000    39.7133369260   116.3360787660     35.453    -15.825    -10.640    0.472       1 
 23215.000    39.7131940860   116.3359520216     35.945    -15.911    -11.101    0.491       1 
 23216.000    39.7130514412   116.3358212195     36.430    -15.699    -11.293    0.488       1 
 23217.000    39.7129113060   116.3356886516     36.888    -15.455    -11.436    0.448       1 
 23218.000    39.7127727325   116.3355538924     37.307    -15.368    -11.671    0.406       1 
 23219.000    39.7126338128   116.3354156948     37.713    -15.506    -12.028    0.386       1 
 23220.000    39.7124929487   116.3352729742     38.083    -15.772    -12.455    0.363       1 
 23221.000    39.7123506614   116.3351257410     38.415    -15.699    -12.670    0.291       1 
 23222.000    39.7122110640   116.3349783956     38.710    -15.334    -12.594    0.283       1 
 23223.000    39.7120733381   116.3348314281     38.977    -15.270    -12.631    0.245       1 
 23224.000    39.7119358929   116.3346841303     39.200    -15.201    -12.620    0.200       1 
 23225.000    39.7117990826   116.3345368235     39.377    -15.231    -12.665    0.197       1 
 23226.000    39.7116612898   116.3343886125     39.612    -15.362    -12.731    0.207       1 
 23227.000    39.7115225918   116.3342402705     39.752    -15.408    -12.704    0.107       1 
 23228.000    39.7113836866   116.3340922380     39.845    -15.418    -12.666    0.091       1 
 23229.000    39.7112450711   116.3339446317     39.904    -15.378    -12.680    0.007       1 
 23230.000    39.7111061655   116.3337956315     39.899    -15.471    -12.881   -0.022       1 
 23231.000    39.7109668770   116.3336460270     39.862    -15.417    -12.726   -0.057       1 
 23232.000    39.7108284469   116.3334985688     39.749    -15.279    -12.592   -0.191       1 
 23233.000    39.7106908837   116.3333518675     39.578    -15.234    -12.565   -0.154       0 
 23234.000    39.7105540145   116.3332054106     39.431    -15.211    -12.596   -0.143       0 
 23235.000    39.7104158047   116.3330568325     39.271    -15.490    -12.900   -0.183       0 
 23236.000    39.7102751374   116.3329051733     39.067    -15.741    -13.103   -0.228       0 
 23237.000    39.7101326910   116.3327520201     38.828    -15.872    -13.137   -0.262       0 
 23238.000    39.7099896177   116.3325993123     38.608    -15.887    -13.064   -0.322       0 
 23239.000    39.7098467198   116.3324474149     38.251    -15.813    -12.995   -0.286       0 
 23240.000    39.7097047488   116.3322955219     37.909    -15.723    -13.043   -0.359       0 
 23241.000    39.7095636616   116.3321432269     37.532    -15.618    -13.058   -0.391       1 
 23242.000    39.7094232172   116.3319913106     37.138    -15.581    -12.998   -0.407       1 
 23243.000    39.7092827895   116.3318398210     36.737    -15.617    -12.997   -0.396       1 
 23244.000    39.7091419658   116.3316883588     36.321    -15.663    -12.987   -0.359       1 
 23245.000    39.7090011227   116.3315369401     35.919    -15.612    -12.995   -0.423       1 
 23246.000    39.7088608806   116.3313851906     35.498    -15.536    -13.041   -0.415       1 
 23247.000    39.7087204823   116.3312325098     35.088    -15.667    -13.184   -0.416       1 
 23248.000    39.7085778200   116.3310776251     34.668    -16.034    -13.398   -0.402       1 
 23249.000    39.7084316843   116.3309199115     34.266    -16.419    -13.657   -0.409       0 
 23250.000    39.7082821560   116.3307592136     33.866    -16.773    -13.901   -0.351       1 
 23251.000    39.7081297012   116.3305960947     33.497    -17.035    -14.072   -0.325       1 
 23252.000    39.7079748019   116.3304309742     33.153    -17.341    -14.261   -0.294       1 
 23253.000    39.7078174216   116.3302632571     32.835    -17.619    -14.512   -0.318       1 
 23254.000    39.7076584711   116.3300935945     32.513    -17.636    -14.540   -0.304       1 
 23255.000    39.7075003814   116.3299245967     32.199    -17.474    -14.446   -0.298       1 
 23256.000    39.7073439880   116.3297569627     31.927    -17.287    -14.300   -0.274       1 
 23257.000    39.7071892822   116.3295908462     31.671    -17.088    -14.188   -0.222       1 
 23258.000    39.7070357988   116.3294257728     31.435    -17.001    -14.126   -0.188       1 
 23259.000    39.7068832209   116.3292618174     31.245    -16.885    -14.000   -0.182       0 
 23260.000    39.7067315339   116.3290993865     31.066    -16.796    -13.863   -0.170       0 
 23261.000    39.7065807815   116.3289386100     30.914    -16.677    -13.733   -0.139       0 
 23262.000    39.7064311314   116.3287794476     30.787    -16.563    -13.570   -0.097       0 
 23263.000    39.7062827545   116.3286224055     30.691    -16.389    -13.369   -0.088       1 
 23264.000    39.7061360896   116.3284678718     30.620    -16.159    -13.123   -0.068       1 
 23265.000    39.7059915359   116.3283162772     30.562    -15.930    -12.871   -0.046       1 
 23266.000    39.7058494019   116.3281673527     30.517    -15.628    -12.666   -0.037       1 
 23267.000    39.7057099176   116.3280209034     30.498    -15.331    -12.450   -0.005       1 
 23268.000    39.7055733493   116.3278773680     30.498    -15.007    -12.160    0.010       1 
 23269.000    39.7054392735   116.3277375471     30.504    -14.766    -11.817    0.006       1 
 23270.000    39.7053068791   116.3276013653     30.516    -14.646    -11.577    0.021       1 
 23271.000    39.7051755217   116.3274675022     30.533    -14.519    -11.394    0.019       1 
 23272.000    39.7050452107   116.3273359341     30.546    -14.420    -11.171    0.024       1 
 23273.000    39.7049156863   116.3272070135     30.565    -14.327    -10.947    0.032       1 
 23274.000    39.7047870459   116.3270806207     30.583    -14.233    -10.734    0.016       1 
 23275.000    39.7046592688   116.3269568883     30.600    -14.143    -10.497    0.022       1 
 23276.000    39.7045322732   116.3268358947     30.617    -14.061    -10.266    0.009       1 
 23277.000    39.7044057138   116.3267172024     30.632    -14.045    -10.142    0.020       1 
 23278.000    39.7042791721   116.3265993791     30.646    -14.079    -10.096    0.018       1 
 23279.000    39.7041513535   116.3264815862     30.678    -14.390    -10.130    0.063       1 
 23280.000    39.7040198351   116.3263635911     30.729    -14.767    -10.096    0.053       1 
 23281.000    39.7038865365   116.3262477416     30.786    -14.787     -9.779    0.070       0 
 23282.000    39.7037534714   116.3261351644     30.850    -14.821     -9.587    0.074       0 
 23283.000    39.7036184353   116.3260234680     30.913    -15.158     -9.594    0.080       0 
 23284.000    39.7034813650   116.3259125531     30.978    -15.201     -9.421    0.031       0 
 23285.000    39.7033450134   116.3258036063     30.993    -15.102     -9.229    0.051       1 
 23286.000    39.7032081465   116.3256985978     31.072    -15.338     -8.900    0.020       1 
 23287.000    39.7030682614   116.3255945396     31.116    -15.727     -9.019    0.059       1 
 23288.000    39.7029245319   116.3254889904     31.151    -16.229     -9.064    0.017       1 
 23289.000    39.7027751281   116.3253852303     31.134    -16.932     -8.736   -0.033       1 
 23290.000    39.7026195927   116.3252846678     31.111    -17.544     -8.627   -0.014       1 
 23291.000    39.7024590440   116.3251833845     31.069    -18.118     -8.715   -0.054       1 
 23292.000    39.7022934604   116.3250812153     31.020    -18.636     -8.862   -0.030       1 
 23293.000    39.7021236568   116.3249755978     30.986    -19.089     -9.195   -0.056       1 
 23294.000    39.7019494648   116.3248676867     30.955    -19.602     -9.282   -0.026       1 
 23295.000    39.7017704645   116.3247593685     30.938    -20.131     -9.282   -0.036       1 
 23296.000    39.7015876567   116.3246514001     30.929    -20.454     -9.275   -0.007       1 
 23297.000    39.7014038041   116.3245433640     30.940    -20.334     -9.225    0.008       1 
 23298.000    39.7012217061   116.3244376506     30.930    -20.117     -8.847    0.007       1 
 23299.000    39.7010407760   116.3243379755     30.917    -20.066     -8.278   -0.023       1 
 23300.000    39.7008585640   116.3242435413     30.906    -20.431     -7.969   -0.009       1 
 23301.000    39.7006726541   116.3241525345     30.882    -20.826     -7.659   -0.015       1 
 23302.000    39.7004834992   116.3240647154     30.864    -21.184     -7.415   -0.038       1 
 23303.000    39.7002910489   116.3239795178     30.804    -21.491     -7.193   -0.024       0 
 23304.000    39.7000977760   116.3238983808     30.797    -21.380     -6.743   -0.029       0 
 23305.000    39.6999061020   116.3238226264     30.763    -21.180     -6.252   -0.050       0 
 23306.000    39.6997159487   116.3237530799     30.749    -21.052     -5.708   -0.014       0 
 23307.000    39.6995269007   116.3236892978     30.718    -20.919     -5.280   -0.050       0 
 23308.000    39.6993394328   116.3236289645     30.685    -20.701     -5.120   -0.083       0 
 23309.000    39.6991538811   116.3235704357     30.647    -20.509     -4.891   -0.021       0 
 23310.000    39.6989698122   116.3235157289     30.608    -20.375     -4.488   -0.037       0 
 23311.000    39.6987870016   116.3234661161     30.567    -20.217     -4.051   -0.051       0 
 23312.000    39.6986056249   116.3234213100     30.537    -20.060     -3.671    0.006       0 
 23313.000    39.6984258406   116.3233804040     30.500    -19.846     -3.422   -0.062       0 
 23314.000    39.6982485350   116.3233402696     30.431    -19.492     -3.427   -0.078       0 
 23315.000    39.6980765257   116.3233006853     30.368    -18.622     -3.364   -0.080       0 
 23316.000    39.6979138889   116.3232610910     30.300    -17.499     -3.431   -0.100       0 
 23317.000    39.6977617013   116.3232194105     30.222    -16.231     -3.752   -0.113       0 
 23318.000    39.6976223425   116.3231719259     30.105    -14.710     -4.300   -0.170       0 
 23319.000    39.6974973917   116.3231180945     29.958    -12.982     -4.864   -0.133       1 
 23320.000    39.6973893979   116.3230557994     29.854    -11.166     -5.859   -0.075       1 
 23321.000    39.6972971745   116.3229774015     29.874     -9.494     -7.469    0.099       1 
 23322.000    39.6972198477   116.3228797776     29.929     -7.763     -9.044    0.062       1 
 23323.000    39.6971587416   116.3227670059     30.016     -6.016    -10.100    0.121       1 
 23324.000    39.6971112771   116.3226436719     30.182     -4.642    -11.067    0.204       1 
 23325.000    39.6970774581   116.3225089502     30.432     -2.946    -11.936    0.304       1 
 23326.000    39.6970582439   116.3223652359     30.780     -1.338    -12.653    0.398       1 
 23327.000    39.6970563921   116.3222159205     31.195      0.852    -12.782    0.414       1 
 23328.000    39.6970737246   116.3220691386     31.616      2.847    -12.290    0.407       1 
 23329.000    39.6971081932   116.3219296767     32.036      4.715    -11.574    0.429       1 
 23330.000    39.6971589387   116.3217999356     32.455      6.455    -10.615    0.407       1 
 23331.000    39.6972250228   116.3216820421     32.881      8.150     -9.546    0.422       1 
 23332.000    39.6973052432   116.3215783904     33.303      9.524     -8.237    0.441       1 
 23333.000    39.6973969338   116.3214903006     33.730     10.805     -6.786    0.430       1 
 23334.000    39.6974993341   116.3214219587     34.137     11.795     -4.901    0.425       1 
 23335.000    39.6976080312   116.3213767848     34.559     12.240     -2.885    0.429       1 
 23336.000    39.6977196223   116.3213541516     34.976     12.466     -0.939    0.410       1 
 23337.000    39.6978309697   116.3213547288     35.360     12.190      1.028    0.370       1 
 23338.000    39.6979383413   116.3213777038     35.704     11.644      2.892    0.315       1 
 23339.000    39.6980406078   116.3214208974     36.005     11.117      4.551    0.283       1 
 23340.000    39.6981379106   116.3214837589     36.269     10.499      6.236    0.238       1 
 23341.000    39.6982278895   116.3215652915     36.486      9.442      7.754    0.202       1 
 23342.000    39.6983071445   116.3216639409     36.653      8.229      9.203    0.146       1 
 23343.000    39.6983764810   116.3217797570     36.800      7.135     10.710    0.197       1 
 23344.000    39.6984352072   116.3219128506     36.980      5.898     12.134    0.206       1 
 23345.000    39.6984837172   116.3220609405     37.172      4.900     13.281    0.172       1 
 23346.000    39.6985222756   116.3222224183     37.305      3.739     14.435    0.105       1 
 23347.000    39.6985549439   116.3223952652     37.429      3.601     15.238    0.104       1 
 23348.000    39.6985874504   116.3225773526     37.547      3.731     15.988    0.105       1 
 23349.000    39.6986231864   116.3227676591     37.644      4.214     16.644    0.107       1 
 23350.000    39.6986631683   116.3229658097     37.732      4.616     17.323    0.095       1 
 23351.000    39.6987048675   116.3231725083     37.849      4.597     18.122    0.105       1 
 23352.000    39.6987455485   116.3233881829     37.942      4.482     18.883    0.072       1 
 23353.000    39.6987855305   116.3236125062     38.071      4.416     19.562    0.096       1 
 23354.000    39.6988247066   116.3238431726     38.102      4.350     20.046    0.043       1 
 23355.000    39.6988642155   116.3240802791     38.088      4.425     20.586   -0.072       1 
 23356.000    39.6989043979   116.3243229103     38.041      4.441     21.000    0.000       1 
 23357.000    39.6989446611   116.3245682940     37.991      4.476     21.154   -0.047       1 
 23358.000    39.6989850754   116.3248159223     37.951      4.502     21.318   -0.026       1 
 23359.000    39.6990250251   116.3250642591     37.904      4.381     21.235   -0.076       1 
 23360.000    39.6990644016   116.3253107038     37.834      4.405     20.986   -0.101       1 
