   GPSTime         Latitude        Longitude      H-Ell      Vel-N      Vel-E    Vel-U   Q
     (sec)            (Deg)            (Deg)        (m)      (m/s)      (m/s)    (m/s)  
 296407.00    30.4888335395   114.5589817452     27.413      8.914     -1.523    0.108       1 
 296408.00    30.4888197699   114.5590771542     27.522      9.405     -1.547    0.127       1 
 296409.00    30.4888057373   114.5591781708     27.628      9.972     -1.574    0.101       1 
 296410.00    30.4887913149   114.5592848888     27.746     10.521     -1.655    0.172       1 
 296411.00    30.4887757351   114.5593969036     27.871     11.002     -1.808    0.149       1 
 296412.00    30.4887588949   114.5595138272     27.988     11.463     -1.906    0.086       1 
 296413.00    30.4887414090   114.5596355938     28.090     11.923     -1.937    0.099       1 
 296414.00    30.4887237812   114.5597621727     28.167     12.374     -1.994    0.062       1 
 296415.00    30.4887056852   114.5598934904     28.223     12.834     -2.020    0.056       1 
 296416.00    30.4886873046   114.5600293923     28.257     13.274     -2.066    0.032       1 
 296417.00    30.4886684210   114.5601694337     28.313     13.540     -2.110    0.041       1 
 296418.00    30.4886494105   114.5603091143     28.344     13.239     -2.093   -0.002       1 
 296419.00    30.4886309183   114.5604450858     28.368     12.847     -2.000   -0.001       1 
 296420.00    30.4886134986   114.5605767206     28.417     12.451     -1.859    0.018       1 
 296421.00    30.4885971535   114.5607055020     28.469     12.324     -1.770    0.044       1 
 296422.00    30.4885821088   114.5608333815     28.502     12.154     -1.590    0.037       1 
 296423.00    30.4885683055   114.5609587434     28.534     11.951     -1.548    0.052       1 
 296424.00    30.4885526378   114.5610825661     28.578     11.892     -1.886    0.040       1 
 296425.00    30.4885334538   114.5612060983     28.613     11.890     -2.314    0.057       1 
 296426.00    30.4885106988   114.5613299966     28.655     11.991     -2.650    0.001       1 
 296427.00    30.4884877066   114.5614559462     28.681     12.201     -2.425    0.053       1 
 296428.00    30.4884682789   114.5615852270     28.726     12.564     -2.019    0.039       1 
 296429.00    30.4884500005   114.5617179672     28.766     12.891     -2.047    0.010       1 
 296430.00    30.4884314855   114.5618540732     28.798     13.222     -2.044    0.008       1 
 296431.00    30.4884128994   114.5619934463     28.852     13.540     -2.068    0.054       1 
 296432.00    30.4883939176   114.5621359331     28.899     13.829     -2.111   -0.014       1 
 296433.00    30.4883740690   114.5622816147     28.926     14.163     -2.290    0.090       1 
 296434.00    30.4883527244   114.5624305938     28.974     14.472     -2.448    0.002       1 
 296435.00    30.4883297042   114.5625828158     29.002     14.771     -2.632    0.042       1 
 296436.00    30.4883057976   114.5627384524     29.002     15.113     -2.652    0.034       1 
 296437.00    30.4882822304   114.5628977640     28.986     15.422     -2.637    0.039       1 
 296438.00    30.4882591984   114.5630578170     28.928     15.226     -2.525   -0.033       1 
 296439.00    30.4882372743   114.5632144553     28.882     14.843     -2.360   -0.054       1 
 296440.00    30.4882170818   114.5633677814     28.844     14.642     -2.161    0.020       1 
 296441.00    30.4881986261   114.5635191223     28.799     14.356     -1.996   -0.029       1 
 296442.00    30.4881807622   114.5636645249     28.758     13.383     -1.960   -0.059       1 
 296443.00    30.4881630493   114.5637961241     28.725     11.878     -1.938   -0.035       1 
 296444.00    30.4881460677   114.5639114200     28.728     10.257     -1.775    0.020       1 
 296445.00    30.4881315856   114.5640087846     28.740      8.323     -1.371    0.021       1 
 296446.00    30.4881242245   114.5640848948     28.831      6.446     -0.396    0.078       1 
 296447.00    30.4881273567   114.5641488764     28.982      5.470      0.857    0.117       1 
 296448.00    30.4881446135   114.5642048448     29.147      4.980      2.551    0.190       1 
 296449.00    30.4881789146   114.5642525386     29.361      3.730      4.459    0.201       1 
 296450.00    30.4882273084   114.5642852302     29.585      2.715      5.704    0.255       1 
 296451.00    30.4882820779   114.5643125024     29.817      2.496      6.422    0.268       1 
 296452.00    30.4883438334   114.5643387875     30.065      2.623      7.172    0.288       1 
 296453.00    30.4884113390   114.5643673504     30.355      2.842      7.790    0.273       1 
 296454.00    30.4884841368   114.5643977178     30.641      2.991      8.359    0.266       1 
 296455.00    30.4885617061   114.5644294981     30.962      3.078      8.838    0.328       1 
 296456.00    30.4886436231   114.5644626307     31.274      3.255      9.296    0.350       1 
 296457.00    30.4887296217   114.5644972814     31.592      3.438      9.675    0.430       1 
 296458.00    30.4888185055   114.5645339156     31.928      3.659      9.758    0.392       1 
 296459.00    30.4889037888   114.5645737862     32.199      4.148      9.074    0.326       1 
 296460.00    30.4889793495   114.5646211872     32.455      4.979      7.722    0.337       1 
 296461.00    30.4890400720   114.5646747612     32.690      5.129      5.783    0.063       1 
 296462.00    30.4890818511   114.5647256327     32.717      4.928      3.785    0.035       1 
 296463.00    30.4891059098   114.5647782992     32.769      5.361      2.063    0.103       1 
 296464.00    30.4891148614   114.5648358652     32.813      6.004      0.732    0.026       1 
 296465.00    30.4891152613   114.5649014884     32.833      6.884     -0.258   -0.073       1 
 296466.00    30.4891059811   114.5649752282     32.839      7.533     -1.309   -0.008       1 
 296467.00    30.4890917165   114.5650563599     32.856      8.149     -1.673    0.016       1 
 296468.00    30.4890761516   114.5651448099     32.878      8.846     -1.776    0.043       1 
 296469.00    30.4890602649   114.5652374198     32.906      8.771     -1.736    0.062       1 
 296470.00    30.4890449582   114.5653275075     32.945      8.641     -1.678    0.022       1 
 296471.00    30.4890295581   114.5654193842     32.973      9.004     -1.750    0.073       1 
 296472.00    30.4890139078   114.5655144523     33.031      9.061     -1.717    0.088       1 
 296473.00    30.4889991075   114.5656065761     33.097      8.620     -1.594    0.082       1 
 296474.00    30.4889859101   114.5656972309     33.178      8.855     -1.405    0.086       1 
 296475.00    30.4889748488   114.5657892232     33.262      8.645     -1.083    0.068       1 
 296476.00    30.4889668828   114.5658768279     33.357      8.116     -0.788    0.097       1 
 296477.00    30.4889571160   114.5659565759     33.444      6.960     -1.142    0.082       1 
 296478.00    30.4889496747   114.5660252644     33.537      6.333     -0.667    0.076       1 
 296479.00    30.4889443886   114.5660914947     33.629      6.225     -0.577    0.062       1 
 296480.00    30.4889386940   114.5661526851     33.710      5.534     -0.610    0.088       1 
 296481.00    30.4889336059   114.5662060262     33.777      4.793     -0.510    0.053       1 
 296482.00    30.4889292302   114.5662534631     33.827      4.199     -0.480    0.066       1 
 296483.00    30.4889249732   114.5662920589     33.878      3.078     -0.398    0.046       1 
 296484.00    30.4889219162   114.5663172780     33.909      1.881     -0.271    0.024       1 
 296485.00    30.4889204168   114.5663293681     33.923      0.420     -0.068    0.022       1 
 296486.00    30.4889203667   114.5663298530     33.929      0.002      0.010   -0.017       1 
 296487.00    30.4889203652   114.5663298463     33.929     -0.006     -0.013    0.019       1 
 296488.00    30.4889203593   114.5663298470     33.928     -0.007      0.003   -0.011       1 
 296489.00    30.4889203565   114.5663298525     33.927      0.009      0.014   -0.024       1 
 296490.00    30.4889203582   114.5663298555     33.927      0.005     -0.013    0.025       1 
 296491.00    30.4889203598   114.5663298570     33.928     -0.004     -0.002    0.004       1 
 296492.00    30.4889203610   114.5663298555     33.928      0.001      0.009   -0.015       1 
 296493.00    30.4889203616   114.5663298515     33.928      0.001     -0.008    0.014       1 
 296494.00    30.4889203614   114.5663298521     33.929      0.000     -0.001    0.007       1 
 296495.00    30.4889203689   114.5663298541     33.929      0.000      0.010   -0.019       1 
 296496.00    30.4889203729   114.5663298539     33.929     -0.002     -0.003    0.002       1 
 296497.00    30.4889203699   114.5663298595     33.929      0.003     -0.012    0.017       1 
 296498.00    30.4889203638   114.5663298602     33.930      0.005     -0.004    0.006       1 
 296499.00    30.4889203591   114.5663298611     33.930     -0.005      0.000   -0.003       1 
 296500.00    30.4889203613   114.5663298539     33.929     -0.004     -0.002   -0.001       1 
 296501.00    30.4889203659   114.5663298460     33.928      0.002     -0.006    0.008       1 
 296502.00    30.4889203677   114.5663298408     33.928     -0.001     -0.001    0.004       1 
 296503.00    30.4889203649   114.5663298394     33.928     -0.002     -0.002   -0.000       1 
 296504.00    30.4889203583   114.5663298413     33.928      0.001      0.002   -0.009       1 
 296505.00    30.4889203543   114.5663298494     33.928      0.003      0.005   -0.004       1 
 296506.00    30.4889203548   114.5663298574     33.928      0.003     -0.008    0.018       1 
 296507.00    30.4889203539   114.5663298850     33.930      0.016     -0.002   -0.010       1 
 296508.00    30.4889201552   114.5663314760     33.934      0.379     -0.067    0.030       1 
 296509.00    30.4889188891   114.5663408454     33.948      1.405     -0.219    0.023       1 
 296510.00    30.4889161233   114.5663608423     33.973      2.437     -0.391    0.036       1 
 296511.00    30.4889117470   114.5663922573     34.012      3.610     -0.577    0.040       1 
 296512.00    30.4889057592   114.5664361580     34.069      4.746     -0.760    0.084       1 
 296513.00    30.4888982506   114.5664904963     34.148      5.679     -0.899    0.059       1 
 296514.00    30.4888891394   114.5665537476     34.226      6.491     -1.095    0.072       1 
 296515.00    30.4888784447   114.5666251763     34.300      7.248     -1.258    0.086       1 
 296516.00    30.4888668713   114.5667041595     34.392      7.905     -1.317    0.096       1 
 296517.00    30.4888548301   114.5667900506     34.498      8.565     -1.381    0.126       1 
 296518.00    30.4888423550   114.5668823212     34.613      9.141     -1.401    0.087       1 
 296519.00    30.4888295855   114.5669804442     34.741      9.683     -1.435    0.130       1 
 296520.00    30.4888173622   114.5670841724     34.864     10.205     -1.280    0.148       1 
 296521.00    30.4888069349   114.5671931252     35.016     10.627     -1.105    0.139       1 
 296522.00    30.4887974639   114.5673024329     35.164     10.259     -0.999    0.199       1 
 296523.00    30.4887889428   114.5674075110     35.308      9.961     -0.915    0.145       1 
 296524.00    30.4887809461   114.5675109523     35.427      9.836     -0.846    0.119       1 
 296525.00    30.4887754032   114.5676115247     35.552      9.498     -0.455    0.129       1 
 296526.00    30.4887736838   114.5677120967     35.675      9.825     -0.067    0.075       1 
 296527.00    30.4887721051   114.5678164193     35.833     10.229     -0.313    0.204       1 
 296528.00    30.4887674155   114.5679249701     35.982     10.666     -0.628    0.158       1 
 296529.00    30.4887609520   114.5680380874     36.147     11.089     -0.826    0.205       1 
 296530.00    30.4887522151   114.5681556125     36.313     11.518     -1.097    0.182       1 
 296531.00    30.4887408481   114.5682772565     36.469     11.897     -1.369    0.119       1 
 296532.00    30.4887277832   114.5684030381     36.610     12.303     -1.529    0.123       1 
 296533.00    30.4887120057   114.5685331080     36.754     12.705     -1.916    0.117       1 
 296534.00    30.4886933654   114.5686673432     36.873     13.077     -2.132    0.164       1 
 296535.00    30.4886743667   114.5688060838     36.986     13.526     -2.107    0.193       1 
 296536.00    30.4886550309   114.5689491358     37.098     13.958     -2.233    0.198       1 
 296537.00    30.4886342418   114.5690963158     37.205     14.336     -2.393    0.118       1 
 296538.00    30.4886130588   114.5692476516     37.276     14.708     -2.352    0.102       1 
 296539.00    30.4885925102   114.5694004324     37.353     14.533     -2.253    0.070       1 
 296540.00    30.4885714862   114.5695517697     37.406     14.586     -2.385    0.072       1 
 296541.00    30.4885501072   114.5697052506     37.439     14.899     -2.378    0.009       1 
 296542.00    30.4885285532   114.5698623368     37.460     15.262     -2.438    0.004       1 
 296543.00    30.4885061779   114.5700228353     37.471     15.590     -2.489    0.002       1 
 296544.00    30.4884836808   114.5701862431     37.458     15.813     -2.508   -0.063       1 
 296545.00    30.4884604972   114.5703497197     37.430     15.558     -2.512   -0.043       1 
 296546.00    30.4884380834   114.5705099312     37.394     15.300     -2.456    0.003       1 
 296547.00    30.4884159605   114.5706686795     37.344     15.149     -2.489   -0.051       1 
 296548.00    30.4883937094   114.5708248915     37.262     14.885     -2.497   -0.108       1 
 296549.00    30.4883707165   114.5709790233     37.172     14.669     -2.535   -0.114       1 
 296550.00    30.4883481030   114.5711310881     37.074     14.605     -2.507   -0.073       1 
 296551.00    30.4883258013   114.5712841915     36.982     14.800     -2.443   -0.128       1 
 296552.00    30.4883036109   114.5714394850     36.847     15.016     -2.485   -0.130       1 
 296553.00    30.4882809322   114.5715972850     36.689     15.262     -2.553   -0.142       1 
 296554.00    30.4882577816   114.5717575334     36.527     15.455     -2.567   -0.167       1 
 296555.00    30.4882348717   114.5719178248     36.336     15.267     -2.483   -0.199       1 
 296556.00    30.4882133925   114.5720755072     36.148     15.001     -2.329   -0.150       1 
 296557.00    30.4881922652   114.5722302358     35.947     14.736     -2.374   -0.173       1 
 296558.00    30.4881707664   114.5723821224     35.735     14.444     -2.380   -0.193       1 
 296559.00    30.4881499042   114.5725286008     35.502     13.489     -2.251   -0.203       1 
 296560.00    30.4881307275   114.5726629290     35.282     12.195     -2.027   -0.181       1 
 296561.00    30.4881128926   114.5727854582     35.082     11.538     -1.939   -0.205       1 
 296562.00    30.4880955614   114.5729039339     34.882     11.176     -1.857   -0.217       1 
 296563.00    30.4880788623   114.5730176840     34.683     10.750     -1.805   -0.198       1 
 296564.00    30.4880628996   114.5731292734     34.482     10.779     -1.771   -0.203       1 
 296565.00    30.4880465638   114.5732439385     34.271     11.266     -1.864   -0.216       1 
 296566.00    30.4880297171   114.5733641378     34.053     11.824     -1.903   -0.224       1 
 296567.00    30.4880121853   114.5734904790     33.820     12.418     -1.985   -0.255       1 
 296568.00    30.4879934697   114.5736229681     33.574     13.017     -2.124   -0.288       1 
 296569.00    30.4879732396   114.5737614167     33.321     13.586     -2.303   -0.257       1 
 296570.00    30.4879521946   114.5739058684     33.048     14.170     -2.358   -0.291       1 
 296571.00    30.4879306835   114.5740552433     32.762     14.422     -2.374   -0.298       1 
 296572.00    30.4879092521   114.5742055575     32.487     14.472     -2.382   -0.260       1 
 296573.00    30.4878878065   114.5743564406     32.199     14.499     -2.413   -0.237       1 
 296574.00    30.4878657727   114.5745086877     31.904     14.753     -2.512   -0.263       1 
 296575.00    30.4878432241   114.5746640841     31.628     15.074     -2.477   -0.333       1 
 296576.00    30.4878217132   114.5748206943     31.340     14.939     -2.399   -0.171       1 
 296577.00    30.4878006103   114.5749756881     31.081     14.884     -2.389   -0.285       1 
 296578.00    30.4877780451   114.5751319162     30.795     15.163     -2.551   -0.305       1 
 296579.00    30.4877545370   114.5752917342     30.504     15.530     -2.630   -0.301       1 
 296580.00    30.4877303960   114.5754554496     30.181     15.889     -2.685   -0.287       1 
 296581.00    30.4877067932   114.5756213480     29.877     15.891     -2.519   -0.367       1 
 296582.00    30.4876845641   114.5757855813     29.577     15.690     -2.410   -0.318       1 
 296583.00    30.4876632318   114.5759492249     29.289     15.750     -2.312   -0.299       1 
 296584.00    30.4876428514   114.5761149563     28.995     16.060     -2.204   -0.324       1 
 296585.00    30.4876235194   114.5762828331     28.705     16.103     -2.073   -0.296       1 
 296586.00    30.4876055894   114.5764497953     28.408     15.931     -1.940   -0.316       1 
 296587.00    30.4875876671   114.5766143789     28.121     15.680     -2.040   -0.292       1 
 296588.00    30.4875686342   114.5767764362     27.823     15.449     -2.191   -0.300       1 
 296589.00    30.4875481672   114.5769359829     27.531     15.209     -2.295   -0.267       1 
 296590.00    30.4875273818   114.5770931357     27.251     14.972     -2.290   -0.246       1 
 296591.00    30.4875075653   114.5772480843     26.976     14.766     -2.157   -0.279       1 
 296592.00    30.4874882505   114.5774007010     26.702     14.542     -2.153   -0.284       1 
 296593.00    30.4874681551   114.5775509090     26.429     14.318     -2.269   -0.290       1 
 296594.00    30.4874472136   114.5776987354     26.162     14.089     -2.346   -0.244       1 
 296595.00    30.4874261049   114.5778444458     25.884     13.897     -2.347   -0.271       1 
 296596.00    30.4874050025   114.5779880468     25.622     13.694     -2.314   -0.249       1 
 296597.00    30.4873849091   114.5781296450     25.365     13.492     -2.139   -0.277       1 
 296598.00    30.4873657821   114.5782691098     25.104     13.286     -2.180   -0.215       1 
 296599.00    30.4873460019   114.5784062760     24.848     13.063     -2.226   -0.159       1 
 296600.00    30.4873268827   114.5785412662     24.591     12.817     -2.058   -0.421       1 
 296601.00    30.4873088397   114.5786737560     24.359     12.612     -1.950   -0.226       1 
 296602.00    30.4872920321   114.5788041481     24.126     12.387     -1.760   -0.298       1 
 296603.00    30.4872773093   114.5789323058     23.858     12.188     -1.529   -0.266       1 
 296604.00    30.4872648299   114.5790571469     23.691     11.634     -1.240   -0.227       1 
 296605.00    30.4872550015   114.5791731593     23.547     10.580     -0.983   -0.081       1 
 296606.00    30.4872471321   114.5792782409     23.440      9.792     -0.855   -0.106       1 
 296607.00    30.4872383517   114.5793779622     23.322      9.367     -1.034   -0.155       1 
 296608.00    30.4872278996   114.5794718808     23.169      8.718     -1.180   -0.153       1 
 296609.00    30.4872169514   114.5795602603     23.073      8.256     -1.205   -0.110       1 
 296610.00    30.4872055704   114.5796424876     22.965      7.591     -1.258   -0.080       1 
