   GPSTime         Latitude        Longitude      H-Ell      Vel-N      Vel-E    Vel-U   
     (sec)            (Deg)            (Deg)        (m)      (m/s)      (m/s)    (m/s)  
 486548.00    30.4871450929   114.5638117387     26.461     -2.755     -8.008   -0.109 
 486549.00    30.4870703687   114.5637812879     26.333     -3.032     -8.564   -0.108 
 486550.00    30.4869929714   114.5637490342     26.182     -3.124     -8.608   -0.155 
 486551.00    30.4869144563   114.5637159401     26.035     -3.230     -8.817   -0.134 
 486552.00    30.4868340054   114.5636822576     25.885     -3.221     -9.027   -0.106 
 486553.00    30.4867518870   114.5636493308     25.752     -3.143     -9.184   -0.114 
 486554.00    30.4866681895   114.5636176751     25.606     -2.984     -9.398   -0.154 
 486555.00    30.4865816908   114.5635883750     25.440     -2.751     -9.742   -0.177 
 486556.00    30.4864928495   114.5635631368     25.280     -2.262     -9.923   -0.158 
 486557.00    30.4864021389   114.5635435542     25.120     -1.719    -10.193   -0.165 
 486558.00    30.4863087170   114.5635292323     24.945     -1.223    -10.500   -0.166 
 486559.00    30.4862128013   114.5635192839     24.764     -0.861    -10.749   -0.198 
 486560.00    30.4861148783   114.5635117376     24.594     -0.646    -10.973   -0.167 
 486561.00    30.4860151167   114.5635074208     24.436     -0.296    -11.102   -0.185 
 486562.00    30.4859154743   114.5635071781     24.264      0.119    -11.021   -0.196 
 486563.00    30.4858160492   114.5635113346     24.079      0.549    -11.059   -0.205 
 486564.00    30.4857151642   114.5635195462     23.897      0.894    -11.300   -0.166 
 486565.00    30.4856126851   114.5635308655     23.744      1.185    -11.421   -0.166 
 486566.00    30.4855085891   114.5635446011     23.557      1.385    -11.690   -0.205 
 486567.00    30.4854021838   114.5635597566     23.399      1.487    -11.874   -0.096 
 486568.00    30.4852946355   114.5635752644     23.341      1.471    -11.987   -0.087 
 486569.00    30.4851862960   114.5635891351     23.219      1.265    -12.021   -0.098 
 486570.00    30.4850785758   114.5636009773     23.134      1.069    -11.804   -0.127 
 486571.00    30.4849726935   114.5636133170     23.065      1.175    -11.676   -0.027 
 486572.00    30.4848676797   114.5636269538     23.017      1.359    -11.637   -0.024 
 486573.00    30.4847624959   114.5636415829     23.006      1.421    -11.712    0.002 
 486574.00    30.4846561600   114.5636563732     22.965      1.412    -11.872   -0.044 
 486575.00    30.4845490080   114.5636702200     22.910      1.260    -11.848   -0.042 
 486576.00    30.4844421535   114.5636822651     22.868      1.110    -11.891   -0.007 
 486577.00    30.4843344465   114.5636933747     22.858      1.049    -11.966   -0.015 
 486578.00    30.4842265764   114.5637037783     22.841      0.989    -11.952   -0.022 
 486579.00    30.4841188817   114.5637150814     22.790      1.139    -11.963    0.016 
 486580.00    30.4840112225   114.5637277837     22.777      1.254    -11.944   -0.010 
 486581.00    30.4839034647   114.5637419279     22.753      1.434    -11.969    0.049 
 486582.00    30.4837958165   114.5637576345     22.745      1.503    -11.932    0.031 
 486583.00    30.4836898757   114.5637720371     22.763      1.333    -11.543    0.029 
 486584.00    30.4835876669   114.5637845660     22.772      1.121    -11.069   -0.059 
 486585.00    30.4834903051   114.5637954992     22.802      1.016    -10.468   -0.005 
 486586.00    30.4833985248   114.5638056900     22.800      0.948     -9.818   -0.005 
 486587.00    30.4833161188   114.5638148866     22.816      0.798     -8.408    0.010 
 486588.00    30.4832442214   114.5638231055     22.834      0.772     -7.692   -0.008 
 486589.00    30.4831774889   114.5638309109     22.842      0.747     -7.097    0.007 
 486590.00    30.4831167408   114.5638399565     22.856      0.851     -6.236    0.019 
 486591.00    30.4830681946   114.5638485971     22.868      0.749     -4.765   -0.009 
 486592.00    30.4830284533   114.5638570152     22.867      0.778     -4.197    0.014 
 486593.00    30.4829879700   114.5638699786     22.864      1.416     -4.675    0.086 
 486594.00    30.4829484767   114.5638927704     22.950      2.329     -4.196    0.089 
 486595.00    30.4829146369   114.5639299670     23.033      3.916     -3.651    0.052 
 486596.00    30.4828866495   114.5639830970     23.081      5.509     -3.007    0.048 
 486597.00    30.4828632590   114.5640482804     23.138      6.602     -2.340    0.051 
 486598.00    30.4828477181   114.5641244159     23.231      7.647     -1.522    0.113 
 486599.00    30.4828349163   114.5642085928     23.328      8.427     -1.434    0.071 
 486600.00    30.4828216151   114.5642997243     23.425      9.026     -1.537    0.130 
 486601.00    30.4828070015   114.5643959518     23.562      9.422     -1.702    0.141 
 486602.00    30.4827901353   114.5644922132     23.686      9.049     -1.998    0.136 
 486603.00    30.4827704133   114.5645842402     23.800      8.714     -2.287    0.110 
 486604.00    30.4827496363   114.5646739299     23.911      8.538     -2.275    0.154 
 486605.00    30.4827303168   114.5647644377     24.052      8.858     -2.108    0.119 
 486606.00    30.4827106293   114.5648560687     24.131      8.679     -2.192    0.026 
 486607.00    30.4826919013   114.5649438916     24.204      8.201     -2.059    0.101 
 486608.00    30.4826715924   114.5650269147     24.331      7.929     -2.402    0.152 
 486609.00    30.4826484097   114.5651086704     24.445      7.883     -2.598    0.105 
 486610.00    30.4826268229   114.5651920132     24.536      8.046     -2.179    0.076 
 486611.00    30.4826095413   114.5652777526     24.627      8.297     -1.808    0.092 
 486612.00    30.4825945767   114.5653651935     24.720      8.412     -1.550    0.083 
 486613.00    30.4825816007   114.5654514958     24.821      8.035     -1.417    0.128 
 486614.00    30.4825681943   114.5655317885     24.949      7.394     -1.540    0.130 
 486615.00    30.4825537085   114.5656045515     25.065      6.616     -1.620    0.105 
 486616.00    30.4825375596   114.5656690159     25.152      5.853     -1.872    0.089 
 486617.00    30.4825180317   114.5657238262     25.238      4.902     -2.322    0.097 
 486618.00    30.4824919838   114.5657685171     25.325      4.219     -3.117    0.067 
 486619.00    30.4824586364   114.5658062976     25.388      3.577     -3.970    0.053 
 486620.00    30.4824175077   114.5658356381     25.399      2.788     -4.934    0.028 
 486621.00    30.4823673148   114.5658567036     25.418      1.990     -6.018    0.047 
 486622.00    30.4823082784   114.5658738976     25.449      1.677     -7.027    0.003 
 486623.00    30.4822398220   114.5658879893     25.448      1.270     -8.095   -0.012 
 486624.00    30.4821622389   114.5658979283     25.437      0.959     -9.051    0.015 
 486625.00    30.4820766777   114.5659087347     25.413      1.113     -9.896    0.019 
 486626.00    30.4819838815   114.5659214376     25.398      1.315    -10.672   -0.110 
 486627.00    30.4818843155   114.5659368789     25.353      1.616    -11.390    0.007 
 486628.00    30.4817786505   114.5659554081     25.315      1.868    -12.048    0.002 
 486629.00    30.4816670497   114.5659752871     25.303      1.907    -12.694   -0.014 
 486630.00    30.4815495959   114.5659949324     25.272      1.877    -13.343   -0.018 
 486631.00    30.4814264076   114.5660136365     25.264      1.747    -13.960   -0.021 
 486632.00    30.4812978827   114.5660314253     25.302      1.748    -14.511    0.067 
 486633.00    30.4811647981   114.5660500171     25.361      1.806    -15.003    0.060 
 486634.00    30.4810273821   114.5660689284     25.451      1.828    -15.476    0.140 
 486635.00    30.4808858097   114.5660880161     25.530      1.858    -15.928    0.093 
 486636.00    30.4807423171   114.5661069084     25.586      1.782    -15.775    0.031 
 486637.00    30.4806017755   114.5661251120     25.667      1.734    -15.347    0.001 
 486638.00    30.4804650177   114.5661433114     25.664      1.721    -14.962    0.041 
 486639.00    30.4803313703   114.5661611313     25.691      1.699    -14.715   -0.028 
 486640.00    30.4801993168   114.5661787267     25.683      1.702    -14.545   -0.083 
 486641.00    30.4800686586   114.5661963293     25.647      1.687    -14.415   -0.036 
 486642.00    30.4799392531   114.5662139741     25.597      1.696    -14.287   -0.077 
 486643.00    30.4798109236   114.5662322239     25.579      1.790    -14.181   -0.020 
 486644.00    30.4796834330   114.5662511513     25.529      1.802    -14.087   -0.048 
 486645.00    30.4795569212   114.5662693874     25.501      1.723    -13.898   -0.029 
 486646.00    30.4794333130   114.5662874609     25.527      1.746    -13.523    0.012 
 486647.00    30.4793131992   114.5663056445     25.527      1.741    -13.091    0.010 
 486648.00    30.4791975721   114.5663232534     25.509      1.623    -12.442   -0.039 
 486649.00    30.4790905824   114.5663386777     25.495      1.390    -11.436   -0.045 
 486650.00    30.4789916913   114.5663522264     25.539      1.214    -10.311    0.048 
 486651.00    30.4789058667   114.5663643674     25.514      1.089     -8.730   -0.033 
 486652.00    30.4788335286   114.5663752591     25.516      0.970     -7.444    0.003 
 486653.00    30.4787719234   114.5663852320     25.499      0.880     -6.072   -0.031 
 486654.00    30.4787249816   114.5663944434     25.472      0.771     -4.328    0.001 
 486655.00    30.4786904937   114.5664028035     25.478      0.721     -3.402    0.028 
 486656.00    30.4786640981   114.5664107757     25.494      0.658     -2.586    0.031 
 486657.00    30.4786409243   114.5664194262     25.511      0.795     -2.567    0.013 
 486658.00    30.4786200265   114.5664296103     25.540      0.882     -2.158   -0.011 
 486659.00    30.4786026083   114.5664416443     25.553      1.002     -1.794    0.005 
 486660.00    30.4785878082   114.5664546956     25.552      1.228     -1.727    0.006 
 486661.00    30.4785716946   114.5664689731     25.555      1.386     -1.969   -0.014 
 486662.00    30.4785506334   114.5664836329     25.551      1.427     -2.377   -0.020 
 486663.00    30.4785277238   114.5664960134     25.549      1.274     -2.672   -0.015 
 486664.00    30.4785017282   114.5665065353     25.567      1.115     -3.043   -0.003 
 486665.00    30.4784721357   114.5665169433     25.551      1.045     -3.339   -0.038 
 486666.00    30.4784474722   114.5665268196     25.514      0.681     -1.943   -0.024 
 486667.00    30.4784307871   114.5665349921     25.494      0.781     -1.896   -0.017 
 486668.00    30.4784137424   114.5665454832     25.458      0.970     -1.903   -0.049 
 486669.00    30.4783968716   114.5665593434     25.423      1.365     -2.044   -0.046 
 486670.00    30.4783787768   114.5665792977     25.374      2.027     -2.163   -0.049 
 486671.00    30.4783597123   114.5666103579     25.300      3.394     -2.299   -0.098 
 486672.00    30.4783418647   114.5666557051     25.208      4.743     -1.923   -0.102 
 486673.00    30.4783286743   114.5667145373     25.087      6.108     -1.409   -0.081 
 486674.00    30.4783190535   114.5667847854     24.962      7.128     -0.859   -0.167 
 486675.00    30.4783144805   114.5668639647     24.801      7.905     -0.346   -0.163 
 486676.00    30.4783137614   114.5669503057     24.648      8.601      0.032   -0.157 
 486677.00    30.4783148931   114.5670435729     24.499      9.260      0.157   -0.145 
 486678.00    30.4783161714   114.5671433861     24.336      9.881      0.123   -0.148 
 486679.00    30.4783168188   114.5672495790     24.154     10.538      0.017   -0.244 
 486680.00    30.4783160589   114.5673624037     23.950     11.030     -0.139   -0.190 
 486681.00    30.4783142616   114.5674763347     23.767     10.846     -0.236   -0.180 
 486682.00    30.4783123051   114.5675878052     23.573     10.525     -0.181   -0.209 
 486683.00    30.4783114813   114.5676952721     23.402     10.155     -0.006   -0.180 
 486684.00    30.4783120974   114.5678000018     23.231      9.935      0.104   -0.202 
 486685.00    30.4783134043   114.5679022347     23.062      9.697      0.173   -0.161 
 486686.00    30.4783163358   114.5680022936     22.882      9.532      0.436   -0.168 
 486687.00    30.4783217012   114.5681017295     22.711      9.526      0.696   -0.175 
 486688.00    30.4783290343   114.5682026185     22.557      9.865      0.856   -0.162 
 486689.00    30.4783358214   114.5683081420     22.390     10.432      0.639   -0.152 
 486690.00    30.4783401068   114.5684193701     22.224     10.991      0.357   -0.138 
 486691.00    30.4783417831   114.5685368608     22.036     11.562      0.103   -0.229 
 486692.00    30.4783417710   114.5686577259     21.836     11.637     -0.072   -0.189 
 486693.00    30.4783411037   114.5687815238     21.645     12.115     -0.081   -0.230 
 486694.00    30.4783401176   114.5689092979     21.421     12.521     -0.149   -0.227 
 486695.00    30.4783389448   114.5690417142     21.191     12.776     -0.112   -0.147 
 486696.00    30.4783383569   114.5691752389     20.977     12.860     -0.039   -0.214 
 486697.00    30.4783383558   114.5693109779     20.668     13.230      0.020   -0.437 
 486698.00    30.4783388374   114.5694500631     20.495     13.377      0.116   -0.287 
 486699.00    30.4783393631   114.5695885621     20.258     13.287      0.038   -0.255 
 486700.00    30.4783389369   114.5697271349     20.031     13.378     -0.108   -0.236 
 486701.00    30.4783373799   114.5698673100     19.805     13.580     -0.221   -0.232 
 486702.00    30.4783348181   114.5700098845     19.571     13.843     -0.298   -0.261 
 486703.00    30.4783328419   114.5701561508     19.320     14.266     -0.146   -0.250 
 486704.00    30.4783325643   114.5703076608     19.055     14.785      0.021   -0.231 
 486705.00    30.4783332304   114.5704641911     18.797     15.205      0.119   -0.299 
 486706.00    30.4783341808   114.5706233863     18.528     15.454      0.092   -0.240 
 486707.00    30.4783347676   114.5707857136     18.281     15.722      0.037   -0.276 
 486708.00    30.4783346008   114.5709494824     18.057     15.804     -0.038   -0.216 
 486709.00    30.4783338722   114.5711147614     17.893     15.982     -0.116   -0.103 
 486710.00    30.4783326740   114.5712821135     17.797     16.156     -0.155   -0.069 
 486711.00    30.4783312785   114.5714510291     17.722     16.301     -0.127   -0.067 
 486712.00    30.4783306288   114.5716215265     17.650     16.455     -0.036   -0.076 
 486713.00    30.4783306994   114.5717938933     17.592     16.637      0.014   -0.048 
 486714.00    30.4783308353   114.5719678523     17.521     16.771      0.035   -0.098 
 486715.00    30.4783311293   114.5721430066     17.443     16.895      0.048   -0.073 
 486716.00    30.4783316216   114.5723196997     17.331     16.967      0.018   -0.075 
 486717.00    30.4783307366   114.5724962586     17.241     17.020     -0.158   -0.108 
 486718.00    30.4783291470   114.5726746428     17.148     17.216     -0.158   -0.109 
 486719.00    30.4783278759   114.5728531878     17.082     17.031     -0.114   -0.096 
 486720.00    30.4783269666   114.5730297466     16.997     16.854     -0.070   -0.085 
 486721.00    30.4783268694   114.5732036450     16.901     16.542      0.068   -0.041 
 486722.00    30.4783272321   114.5733743454     16.837     16.271      0.065   -0.078 
 486723.00    30.4783281635   114.5735429033     16.756     16.107      0.137   -0.091 
 486724.00    30.4783293227   114.5737098096     16.685     15.970      0.048   -0.049 
 486725.00    30.4783289791   114.5738751438     16.635     15.829     -0.142   -0.026 
 486726.00    30.4783266203   114.5740394330     16.569     15.759     -0.299   -0.057 
 486727.00    30.4783235396   114.5742034436     16.468     15.748     -0.334   -0.113 
 486728.00    30.4783206240   114.5743675961     16.358     15.774     -0.300   -0.047 
 486729.00    30.4783181482   114.5745318904     16.349     15.754     -0.214   -0.031 
 486730.00    30.4783164792   114.5746963932     16.266     15.802     -0.146   -0.051 
 486731.00    30.4783157498   114.5748614488     16.186     15.858     -0.051   -0.052 
 486732.00    30.4783151698   114.5750272158     16.117     15.939     -0.077   -0.048 
 486733.00    30.4783141092   114.5751936544     16.078     16.024     -0.152   -0.005 
 486734.00    30.4783128359   114.5753608437     16.116     16.084     -0.126    0.043 
 486735.00    30.4783116595   114.5755287335     16.183     16.152     -0.112    0.090 
 486736.00    30.4783108284   114.5756971593     16.278     16.191     -0.065    0.141 
 486737.00    30.4783107878   114.5758664897     16.417     16.305      0.031    0.163 
 486738.00    30.4783113525   114.5760373475     16.508     16.522      0.046    0.087 
 486739.00    30.4783118321   114.5762107700     16.596     16.778      0.042    0.122 
 486740.00    30.4783123518   114.5763869967     16.708     17.058      0.060    0.071 
 486741.00    30.4783123552   114.5765659994     16.805     17.338     -0.079    0.100 
 486742.00    30.4783106900   114.5767477743     16.919     17.601     -0.246    0.099 
 486743.00    30.4783083355   114.5769324886     17.014     17.867     -0.266    0.129 
 486744.00    30.4783060862   114.5771197142     17.118     17.967     -0.251    0.151 
 486745.00    30.4783039536   114.5773065193     17.224     17.997     -0.232    0.100 
 486746.00    30.4783019910   114.5774945587     17.312     18.041     -0.202    0.143 
 486747.00    30.4783004788   114.5776825639     17.400     18.074     -0.124   -0.127 
 486748.00    30.4782991015   114.5778690484     17.512     17.867     -0.159    0.165 
 486749.00    30.4782980216   114.5780553243     17.612     17.914     -0.035   -0.063 
 486750.00    30.4782978893   114.5782418750     17.738     17.917      0.015    0.151 
 486751.00    30.4782981450   114.5784272375     17.868     17.602      0.024    0.144 
 486752.00    30.4782982224   114.5786082326     17.966     17.162     -0.015    0.078 
 486753.00    30.4782975753   114.5787845821     18.070     16.699     -0.109    0.136 
 486754.00    30.4782960542   114.5789563565     18.190     16.276     -0.172    0.112 
 486755.00    30.4782942145   114.5791238333     18.274     15.888     -0.151    0.079 
 486756.00    30.4782941660   114.5792880601     18.378     15.605      0.023    0.102 
 486757.00    30.4782937585   114.5794483820     18.477     15.181     -0.031    0.068 
 486758.00    30.4782940918   114.5796019943     18.553     14.359      0.035    0.143 
 486759.00    30.4782945788   114.5797461228     18.649     13.140      0.035    0.083 
 486760.00    30.4782942681   114.5798735642     18.716     11.269     -0.049    0.101 
 486761.00    30.4782944152   114.5799766757     18.763      8.330      0.041    0.063 
 486762.00    30.4782951786   114.5800448745     18.806      4.679      0.075    0.012 
 486763.00    30.4782956979   114.5800755286     18.824      1.778      0.034    0.021 
 486764.00    30.4782958703   114.5800851836     18.829      0.096     -0.005    0.018 
 486765.00    30.4782958666   114.5800850073     18.838      0.006      0.014   -0.026 
 486766.00    30.4782958673   114.5800850017     18.838     -0.002     -0.008    0.013 
 486767.00    30.4782958701   114.5800850001     18.838     -0.004     -0.003    0.005 
 486768.00    30.4782958728   114.5800849983     18.836      0.001      0.011   -0.029 
 486769.00    30.4782958779   114.5800849951     18.835      0.001     -0.004    0.016 
