
   GPSTime         Latitude        Longitude      H-Ell      Vel-N      Vel-E    Vel-U  
     (sec)            (Deg)            (Deg)        (m)      (m/s)      (m/s)    (m/s)  
473203.000    30.4888486106   114.5589082366     27.237     -1.007      7.070    0.141 
473204.000    30.4888390865   114.5589824564     27.335     -1.097      7.223    0.100 
473205.000    30.4888287363   114.5590581568     27.423     -1.189      7.350    0.117 
473206.000    30.4888178967   114.5591352550     27.513     -1.224      7.511    0.106 
473207.000    30.4888065829   114.5592149749     27.603     -1.278      7.804    0.109 
473208.000    30.4887949800   114.5592968248     27.692     -1.289      7.859    0.093 
473209.000    30.4887834944   114.5593785403     27.780     -1.273      7.853    0.104 
473210.000    30.4887720416   114.5594601971     27.868     -1.272      7.854    0.100 
473211.000    30.4887605952   114.5595420542     27.943     -1.275      7.891    0.086 
473212.000    30.4887489649   114.5596251545     28.016     -1.305      8.096    0.073 
473213.000    30.4887369884   114.5597104924     28.073     -1.348      8.293    0.066 
473214.000    30.4887246701   114.5597970427     28.111     -1.378      8.316    0.041 
473215.000    30.4887121223   114.5598836788     28.143     -1.400      8.328    0.056 
473216.000    30.4886994078   114.5599703456     28.180     -1.405      8.337    0.016 
473217.000    30.4886866933   114.5600573095     28.192     -1.407      8.383    0.036 
473218.000    30.4886739829   114.5601446352     28.232     -1.401      8.418    0.007 
473219.000    30.4886613618   114.5602326232     28.254     -1.408      8.490    0.059 
473220.000    30.4886487316   114.5603216187     28.271     -1.408      8.607    0.044 
473221.000    30.4886360773   114.5604119018     28.290     -1.393      8.736    0.015 
473222.000    30.4886233061   114.5605035119     28.314     -1.423      8.866    0.029 
473223.000    30.4886103078   114.5605963923     28.345     -1.447      8.978   -0.006 
473224.000    30.4885970742   114.5606904178     28.387     -1.481      9.083    0.011 
473225.000    30.4885834899   114.5607856294     28.412     -1.520      9.210   -0.026 
473226.000    30.4885696407   114.5608820971     28.434     -1.535      9.310    0.012 
473227.000    30.4885557356   114.5609797497     28.468     -1.538      9.418    0.002 
473228.000    30.4885419546   114.5610785933     28.499     -1.508      9.513    0.003 
473229.000    30.4885281761   114.5611788102     28.531     -1.556      9.740    0.027 
473230.000    30.4885138527   114.5612817113     28.562     -1.611     10.021    0.017 
473231.000    30.4884989380   114.5613874639     28.593     -1.691     10.279    0.044 
473232.000    30.4884833673   114.5614958597     28.620     -1.767     10.526    0.076 
473233.000    30.4884673644   114.5616066886     28.655     -1.786     10.758    0.014 
473234.000    30.4884512063   114.5617189765     28.692     -1.803     10.781    0.029 
473235.000    30.4884349216   114.5618308947     28.720     -1.793     10.731    0.025 
473236.000    30.4884189394   114.5619427156     28.758     -1.767     10.778    0.065 
473237.000    30.4884032171   114.5620552570     28.797     -1.739     10.843    0.044 
473238.000    30.4883876809   114.5621686294     28.827     -1.724     10.918    0.046 
473239.000    30.4883720898   114.5622828979     28.853     -1.752     11.015    0.013 
473240.000    30.4883560016   114.5623979132     28.896     -1.793     11.058    0.007 
473241.000    30.4883395438   114.5625126099     28.917     -1.837     10.939    0.040 
473242.000    30.4883229330   114.5626256255     28.930     -1.832     10.769    0.008 
473243.000    30.4883066678   114.5627368320     28.925     -1.786     10.594    0.022 
473244.000    30.4882908578   114.5628459473     28.916     -1.722     10.380    0.013 
473245.000    30.4882753802   114.5629528812     28.901     -1.697     10.165   -0.028 
473246.000    30.4882601850   114.5630578585     28.853     -1.676     10.011   -0.048 
473247.000    30.4882452520   114.5631614730     28.819     -1.628      9.888   -0.063 
473248.000    30.4882310785   114.5632640561     28.787     -1.495      9.723   -0.049 
473249.000    30.4882183489   114.5633635232     28.765     -1.342      9.344   -0.027 
473250.000    30.4882070942   114.5634588328     28.737     -1.206      8.927   -0.001 
473251.000    30.4881967423   114.5635495936     28.713     -1.123      8.490    0.001 
473252.000    30.4881866936   114.5636354641     28.698     -1.101      8.016   -0.011 
473253.000    30.4881766300   114.5637161371     28.676     -1.102      7.492   -0.011 
473254.000    30.4881666064   114.5637912617     28.657     -1.100      6.947   -0.007 
473255.000    30.4881569261   114.5638604417     28.652     -1.028      6.343   -0.025 
473256.000    30.4881480376   114.5639232580     28.664     -0.929      5.701    0.020 
473257.000    30.4881400906   114.5639789520     28.675     -0.821      4.993   -0.015 
473258.000    30.4881332024   114.5640285230     28.694     -0.708      4.645    0.034 
473259.000    30.4881293607   114.5640767142     28.763     -0.209      4.475    0.055 
473260.000    30.4881325216   114.5641239388     28.873      0.636      4.293    0.131 
473261.000    30.4881441278   114.5641690647     29.005      1.520      4.092    0.101 
473262.000    30.4881622443   114.5642112684     29.146      2.214      3.818    0.148 
473263.000    30.4881877235   114.5642491761     29.315      3.134      3.289    0.156 
473264.000    30.4882218976   114.5642807275     29.491      4.121      2.662    0.180 
473265.000    30.4882640238   114.5643052062     29.679      4.968      2.063    0.172 
473266.000    30.4883118485   114.5643258000     29.872      5.528      1.941    0.216 
473267.000    30.4883638625   114.5643464067     30.090      5.945      2.040    0.237 
473268.000    30.4884185027   114.5643683304     30.323      6.170      2.155    0.227 
473269.000    30.4884754131   114.5643913237     30.549      6.448      2.276    0.270 
473270.000    30.4885345637   114.5644153549     30.794      6.644      2.319    0.239 
473271.000    30.4885951432   114.5644400132     31.040      6.800      2.404    0.183 
473272.000    30.4886564112   114.5644650275     31.264      6.741      2.368    0.219 
473273.000    30.4887162710   114.5644894945     31.480      6.560      2.322    0.250 
473274.000    30.4887754237   114.5645138610     31.710      6.501      2.341    0.189 
473275.000    30.4888308010   114.5645375259     31.876      5.740      2.190    0.103 
473276.000    30.4888785185   114.5645593501     31.965      4.926      2.014    0.108 
473277.000    30.4889206520   114.5645800890     32.058      4.453      1.983    0.077 
473278.000    30.4889596025   114.5646012454     32.108      4.129      2.097    0.044 
473279.000    30.4889923602   114.5646224735     32.174      3.300      2.048    0.058 
473280.000    30.4890191424   114.5646441381     32.208      2.753      2.121   -0.014 
473281.000    30.4890418003   114.5646671016     32.177      2.411      2.324   -0.073 
473282.000    30.4890617884   114.5646926659     32.108      2.215      2.701   -0.066 
473283.000    30.4890799023   114.5647230240     32.039      1.952      3.209   -0.089 
473284.000    30.4890933132   114.5647584666     31.977      1.306      3.691   -0.044 
473285.000    30.4891001171   114.5647973903     31.946      0.584      4.049   -0.041 
473286.000    30.4891006142   114.5648415731     31.905     -0.069      4.698   -0.046 
473287.000    30.4890963444   114.5648922958     31.863     -0.591      5.241   -0.050 
473288.000    30.4890888524   114.5649489796     31.822     -0.891      5.737   -0.043 
473289.000    30.4890802482   114.5650113099     31.795     -0.998      6.245   -0.023 
473290.000    30.4890709116   114.5650789268     31.795     -1.059      6.713    0.018 
473291.000    30.4890611811   114.5651505249     31.792     -1.089      7.001   -0.030 
473292.000    30.4890509483   114.5652246450     31.805     -1.162      7.197    0.033 
473293.000    30.4890402127   114.5652997809     31.832     -1.201      7.193    0.031 
473294.000    30.4890295407   114.5653742912     31.848     -1.162      7.096    0.014 
473295.000    30.4890192317   114.5654477140     31.880     -1.126      6.976    0.049 
473296.000    30.4890092792   114.5655191077     31.934     -1.078      6.706    0.066 
473297.000    30.4889997833   114.5655874791     31.986     -1.013      6.402    0.050 
473298.000    30.4889916397   114.5656526751     32.043     -0.838      6.072    0.060 
473299.000    30.4889851510   114.5657155063     32.116     -0.682      6.019    0.056 
473300.000    30.4889795744   114.5657781875     32.182     -0.585      5.915    0.054 
473301.000    30.4889746590   114.5658363575     32.240     -0.504      5.215    0.073 
473302.000    30.4889705533   114.5658860797     32.306     -0.416      4.314    0.076 
473303.000    30.4889672669   114.5659263353     32.362     -0.334      3.543    0.053 
473304.000    30.4889644970   114.5659611369     32.408     -0.281      3.040    0.049 
473305.000    30.4889622613   114.5659892560     32.450     -0.238      2.569    0.040 
473306.000    30.4889601750   114.5660154779     32.487     -0.221      2.427    0.037 
473307.000    30.4889582274   114.5660397625     32.524     -0.212      2.244    0.031 
473308.000    30.4889561415   114.5660627351     32.559     -0.255      2.191    0.078 
473309.000    30.4889536838   114.5660847118     32.592     -0.261      1.959    0.035 
473310.000    30.4889510745   114.5661041722     32.622     -0.293      1.847    0.054 
473311.000    30.4889483529   114.5661219957     32.647     -0.282      1.580    0.059 
473312.000    30.4889460309   114.5661358888     32.665     -0.213      1.117    0.015 
473313.000    30.4889444846   114.5661451516     32.676     -0.130      0.670    0.025 
473314.000    30.4889437324   114.5661498538     32.681     -0.057      0.248    0.034 
473315.000    30.4889436106   114.5661506709     32.682     -0.005      0.007    0.013 
473316.000    30.4889436130   114.5661506677     32.681     -0.022      0.008    0.054 
473317.000    30.4889436152   114.5661506703     32.680      0.019     -0.007   -0.047 
473318.000    30.4889436190   114.5661506722     32.678      0.008      0.004   -0.021 
473319.000    30.4889436175   114.5661506731     32.677     -0.018      0.009    0.036 
473320.000    30.4889436143   114.5661506743     32.678     -0.006     -0.010    0.010 
473321.000    30.4889435294   114.5661512221     32.679     -0.035      0.170    0.007 
473322.000    30.4889428642   114.5661554674     32.685     -0.128      0.650    0.033 
473323.000    30.4889413981   114.5661648356     32.696     -0.208      1.140    0.017 
473324.000    30.4889392698   114.5661785178     32.712     -0.284      1.476    0.072 
473325.000    30.4889368388   114.5661949510     32.731     -0.294      1.653    0.018 
473326.000    30.4889342703   114.5662128774     32.748     -0.319      1.769    0.063 
473327.000    30.4889316920   114.5662314142     32.769     -0.302      1.800    0.045 
473328.000    30.4889291909   114.5662514898     32.791     -0.318      2.126    0.054 
473329.000    30.4889264970   114.5662755050     32.823     -0.325      2.450    0.036 
473330.000    30.4889233256   114.5663029440     32.861     -0.403      2.843    0.079 
473331.000    30.4889194103   114.5663338267     32.896     -0.450      3.072    0.054 
473332.000    30.4889149599   114.5663668099     32.936     -0.532      3.311    0.044 
473333.000    30.4889098079   114.5664030416     32.980     -0.602      3.655    0.037 
473334.000    30.4889040992   114.5664427316     33.034     -0.667      3.978    0.054 
473335.000    30.4888978579   114.5664859059     33.095     -0.724      4.319    0.072 
473336.000    30.4888911602   114.5665326739     33.158     -0.769      4.662    0.066 
473337.000    30.4888840451   114.5665830788     33.214     -0.816      5.000    0.053 
473338.000    30.4888765450   114.5666365720     33.271     -0.857      5.233    0.064 
473339.000    30.4888686595   114.5666920039     33.338     -0.884      5.394    0.066 
473340.000    30.4888603547   114.5667493780     33.408     -0.954      5.674    0.083 
473341.000    30.4888515234   114.5668110333     33.481     -1.016      6.175    0.051 
473342.000    30.4888421752   114.5668779643     33.568     -1.050      6.670    0.093 
473343.000    30.4888331619   114.5669500789     33.660     -0.987      7.106    0.111 
473344.000    30.4888246881   114.5670265696     33.742     -0.918      7.492    0.073 
473345.000    30.4888168539   114.5671063413     33.855     -0.845      7.769    0.158 
473346.000    30.4888096936   114.5671887483     33.969     -0.775      8.023    0.109 
473347.000    30.4888031668   114.5672736645     34.081     -0.696      8.260    0.122 
473348.000    30.4887971609   114.5673608572     34.194     -0.712      8.456    0.104 
473349.000    30.4887899660   114.5674497828     34.318     -0.863      8.625    0.130 
473350.000    30.4887823177   114.5675404768     34.423     -0.819      8.789    0.117 
473351.000    30.4887766806   114.5676334069     34.540     -0.510      9.034    0.124 
473352.000    30.4887726176   114.5677293561     34.650     -0.515      9.402    0.164 
473353.000    30.4887674112   114.5678286876     34.793     -0.656      9.731    0.162 
473354.000    30.4887608203   114.5679312057     34.931     -0.828     10.010    0.195 
473355.000    30.4887524915   114.5680366415     35.075     -1.048     10.273    0.177 
473356.000    30.4887429324   114.5681445539     35.226     -0.984     10.463    0.141 
473357.000    30.4887345447   114.5682547732     35.373     -0.934     10.673    0.096 
473358.000    30.4887256518   114.5683670072     35.503     -1.010     10.895    0.074 
473359.000    30.4887147570   114.5684810392     35.635     -1.348     11.054    0.135 
473360.000    30.4887009266   114.5685966748     35.761     -1.654     11.194    0.117 
473361.000    30.4886853568   114.5687140768     35.855     -1.768     11.363    0.087 
473362.000    30.4886693777   114.5688334197     35.965     -1.776     11.560    0.137 
473363.000    30.4886532708   114.5689546728     36.053     -1.802     11.704    0.187 
473364.000    30.4886370511   114.5690777306     36.144     -1.815     11.893    0.127 
473365.000    30.4886206687   114.5692024969     36.209     -1.820     12.063    0.043 
473366.000    30.4886043131   114.5693289568     36.271     -1.833     12.188    0.089 
473367.000    30.4885878584   114.5694558321     36.329     -1.816     12.165    0.023 
473368.000    30.4885712484   114.5695829001     36.374     -1.846     12.202    0.047 
473369.000    30.4885544626   114.5697104684     36.403     -1.885     12.281    0.050 
473370.000    30.4885373454   114.5698391483     36.421     -1.919     12.452   -0.005 
473371.000    30.4885198025   114.5699696441     36.436     -1.989     12.633    0.054 
473372.000    30.4885018106   114.5701024661     36.435     -2.022     12.896   -0.003 
473373.000    30.4884832333   114.5702377460     36.418     -2.082     13.121   -0.030 
473374.000    30.4884642405   114.5703753329     36.401     -2.081     13.288   -0.077 
473375.000    30.4884450444   114.5705139792     36.370     -2.125     13.256   -0.019 
473376.000    30.4884258774   114.5706522421     36.318     -2.101     13.267   -0.038 
473377.000    30.4884069057   114.5707902786     36.251     -2.091     13.255   -0.055 
473378.000    30.4883877089   114.5709282750     36.176     -2.128     13.253   -0.078 
473379.000    30.4883679039   114.5710662809     36.091     -2.207     13.261   -0.001 
473380.000    30.4883478290   114.5712044053     36.003     -2.244     13.272   -0.089 
473381.000    30.4883280426   114.5713425750     35.907     -2.162     13.269   -0.143 
473382.000    30.4883088688   114.5714809076     35.781     -2.093     13.291   -0.157 
473383.000    30.4882900275   114.5716198819     35.642     -2.096     13.392   -0.119 
473384.000    30.4882707289   114.5717605063     35.501     -2.157     13.616   -0.163 
473385.000    30.4882508154   114.5719032829     35.341     -2.256     13.810   -0.164 
473386.000    30.4882302903   114.5720474237     35.159     -2.310     13.832   -0.172 
473387.000    30.4882093874   114.5721907843     34.978     -2.318     13.724   -0.215 
473388.000    30.4881885336   114.5723329487     34.779     -2.297     13.593   -0.189 
473389.000    30.4881680132   114.5724739819     34.587     -2.247     13.489   -0.229 
473390.000    30.4881478125   114.5726140120     34.354     -2.228     13.403   -0.244 
473391.000    30.4881277857   114.5727531530     34.119     -2.208     13.373   -0.248 
473392.000    30.4881077593   114.5728913403     33.890     -2.213     13.237   -0.219 
473393.000    30.4880878404   114.5730287444     33.650     -2.213     13.174   -0.245 
473394.000    30.4880680523   114.5731654951     33.403     -2.184     13.091   -0.241 
473395.000    30.4880482057   114.5733026671     33.147     -2.218     13.285   -0.264 
473396.000    30.4880280361   114.5734423279     32.894     -2.257     13.521   -0.259 
473397.000    30.4880076213   114.5735846037     32.633     -2.259     13.777   -0.275 
473398.000    30.4879871537   114.5737294428     32.370     -2.272     14.031   -0.265 
473399.000    30.4879666626   114.5738767472     32.097     -2.280     14.242   -0.257 
473400.000    30.4879461030   114.5740264904     31.816     -2.283     14.485   -0.310 
473401.000    30.4879253540   114.5741785146     31.536     -2.324     14.663   -0.276 
473402.000    30.4879042448   114.5743309424     31.248     -2.347     14.552   -0.303 
473403.000    30.4878830036   114.5744815163     30.949     -2.351     14.358   -0.309 
473404.000    30.4878618941   114.5746299438     30.684     -2.310     14.119   -0.217 
473405.000    30.4878410963   114.5747760873     30.420     -2.264     13.919   -0.349 
473406.000    30.4878209046   114.5749199572     30.175     -2.200     13.700   -0.267 
473407.000    30.4878014779   114.5750617686     29.916     -2.126     13.535   -0.262 
473408.000    30.4877825309   114.5752014469     29.652     -2.101     13.301   -0.197 
473409.000    30.4877637839   114.5753389535     29.414     -2.066     13.084   -0.250 
473410.000    30.4877451930   114.5754742194     29.155     -2.052     12.886   -0.252 
473411.000    30.4877267936   114.5756072779     28.913     -2.026     12.671   -0.227 
473412.000    30.4877086092   114.5757380609     28.675     -2.015     12.443   -0.234 
473413.000    30.4876904794   114.5758667399     28.437     -2.027     12.297   -0.207 
473414.000    30.4876721643   114.5759946375     28.224     -2.028     12.276   -0.235 
473415.000    30.4876540475   114.5761225330     27.981     -1.996     12.294   -0.240 
473416.000    30.4876364676   114.5762506422     27.751     -1.923     12.295   -0.209 
473417.000    30.4876192463   114.5763789015     27.526     -1.927     12.319   -0.206 
473418.000    30.4876014088   114.5765074486     27.290     -2.040     12.371   -0.201 
473419.000    30.4875828209   114.5766361572     27.050     -2.077     12.294   -0.227 
473420.000    30.4875641717   114.5767631339     26.807     -2.059     12.087   -0.214 
473421.000    30.4875457966   114.5768879957     26.572     -2.006     11.883   -0.223 
473422.000    30.4875279539   114.5770105990     26.349     -1.956     11.654   -0.205 
473423.000    30.4875108567   114.5771309322     26.130     -1.843     11.436   -0.226 
473424.000    30.4874943352   114.5772489239     25.922     -1.833     11.224   -0.204 
