
   GPSTime         Latitude        Longitude      H-Ell      Vel-N      Vel-E    Vel-U  
     (sec)            (Deg)            (Deg)        (m)      (m/s)      (m/s)    (m/s)  
473203.000    30.4888453052   114.5589015612     27.803     -1.024      7.073    0.117 
473204.000    30.4888358503   114.5589757655     27.904     -1.100      7.224    0.095 
473205.000    30.4888255463   114.5590514427     27.993     -1.206      7.360    0.085 
473206.000    30.4888147245   114.5591285074     28.081     -1.231      7.516    0.093 
473207.000    30.4888034063   114.5592082214     28.169     -1.285      7.788    0.115 
473208.000    30.4887918001   114.5592900783     28.259     -1.291      7.867    0.083 
473209.000    30.4887803173   114.5593718015     28.348     -1.284      7.849    0.095 
473210.000    30.4887688563   114.5594534804     28.437     -1.283      7.859    0.082 
473211.000    30.4887573878   114.5595353411     28.511     -1.281      7.901    0.070 
473212.000    30.4887457414   114.5596184376     28.583     -1.313      8.077    0.079 
473213.000    30.4887337789   114.5597037684     28.641     -1.352      8.309    0.046 
473214.000    30.4887214815   114.5597903446     28.683     -1.389      8.301    0.040 
473215.000    30.4887089655   114.5598769809     28.717     -1.410      8.327    0.044 
473216.000    30.4886962406   114.5599636533     28.754     -1.393      8.351    0.019 
473217.000    30.4886835515   114.5600506054     28.766     -1.408      8.382    0.035 
473218.000    30.4886708212   114.5601379428     28.806     -1.397      8.429    0.001 
473219.000    30.4886582014   114.5602259247     28.828     -1.418      8.494    0.043 
473220.000    30.4886455469   114.5603149424     28.845     -1.416      8.609    0.032 
473221.000    30.4886328811   114.5604052561     28.866     -1.388      8.746    0.011 
473222.000    30.4886200963   114.5604968374     28.886     -1.424      8.868    0.026 
473223.000    30.4886071025   114.5605897206     28.918     -1.440      8.981    0.001 
473224.000    30.4885938957   114.5606837291     28.960     -1.478      9.090    0.009 
473225.000    30.4885803061   114.5607789343     28.984     -1.503      9.218   -0.011 
473226.000    30.4885664590   114.5608754081     29.007     -1.535      9.302    0.020 
473227.000    30.4885525488   114.5609730461     29.040     -1.525      9.419    0.018 
473228.000    30.4885387486   114.5610719183     29.072     -1.493      9.497    0.038 
473229.000    30.4885249672   114.5611721239     29.102     -1.557      9.741    0.025 
473230.000    30.4885106445   114.5612750151     29.132     -1.603     10.019    0.030 
473231.000    30.4884957566   114.5613807687     29.166     -1.691     10.282    0.040 
473232.000    30.4884801996   114.5614891511     29.192     -1.783     10.530    0.051 
473233.000    30.4884641872   114.5615999968     29.228     -1.779     10.767    0.015 
473234.000    30.4884480562   114.5617122757     29.266     -1.807     10.786    0.019 
473235.000    30.4884317710   114.5618242104     29.295     -1.793     10.740    0.019 
473236.000    30.4884157517   114.5619360168     29.329     -1.777     10.802    0.030 
473237.000    30.4883999979   114.5620485919     29.370     -1.743     10.853    0.029 
473238.000    30.4883844656   114.5621619819     29.402     -1.730     10.923    0.035 
473239.000    30.4883688849   114.5622762353     29.427     -1.754     11.013    0.011 
473240.000    30.4883528045   114.5623912207     29.468     -1.782     11.049    0.029 
473241.000    30.4883363696   114.5625059225     29.491     -1.845     10.944    0.025 
473242.000    30.4883197637   114.5626189401     29.505     -1.823     10.784    0.006 
473243.000    30.4883034972   114.5627301620     29.501     -1.796     10.614   -0.008 
473244.000    30.4882876835   114.5628392904     29.493     -1.720     10.384    0.012 
473245.000    30.4882721784   114.5629462298     29.476     -1.699     10.153   -0.020 
473246.000    30.4882569993   114.5630512072     29.430     -1.676     10.030   -0.065 
473247.000    30.4882420293   114.5631548269     29.394     -1.613      9.898   -0.052 
473248.000    30.4882278355   114.5632574540     29.365     -1.481      9.722   -0.030 
473249.000    30.4882150698   114.5633569571     29.344     -1.338      9.348   -0.025 
473250.000    30.4882037601   114.5634523135     29.317     -1.214      8.945   -0.028 
473251.000    30.4881934103   114.5635430846     29.295     -1.131      8.484   -0.004 
473252.000    30.4881833944   114.5636289307     29.279     -1.096      8.027   -0.015 
473253.000    30.4881734125   114.5637095737     29.260     -1.108      7.475   -0.004 
473254.000    30.4881634636   114.5637846874     29.245     -1.109      6.942   -0.014 
473255.000    30.4881537755   114.5638538285     29.235     -1.024      6.342   -0.018 
473256.000    30.4881448851   114.5639166171     29.244     -0.922      5.708    0.023 
473257.000    30.4881369225   114.5639723110     29.254     -0.818      5.007   -0.023 
473258.000    30.4881299661   114.5640218545     29.266     -0.697      4.662    0.032 
473259.000    30.4881255958   114.5640703089     29.323     -0.133      4.570    0.068 
473260.000    30.4881277914   114.5641182780     29.416      0.724      4.407    0.142 
473261.000    30.4881385275   114.5641646454     29.552      1.614      4.204    0.123 
473262.000    30.4881561096   114.5642078898     29.692      2.300      3.927    0.163 
473263.000    30.4881811168   114.5642473622     29.861      3.246      3.430    0.176 
473264.000    30.4882151024   114.5642807775     30.036      4.232      2.814    0.187 
473265.000    30.4882573840   114.5643068500     30.225      5.040      2.145    0.192 
473266.000    30.4883053839   114.5643281269     30.421      5.541      1.966    0.210 
473267.000    30.4883574295   114.5643488634     30.639      5.944      2.036    0.239 
473268.000    30.4884120734   114.5643707977     30.872      6.175      2.157    0.231 
473269.000    30.4884689887   114.5643937445     31.100      6.435      2.278    0.251 
473270.000    30.4885281358   114.5644177275     31.347      6.659      2.318    0.259 
473271.000    30.4885887360   114.5644423662     31.596      6.819      2.413    0.199 
473272.000    30.4886500225   114.5644673837     31.823      6.746      2.363    0.230 
473273.000    30.4887098807   114.5644918441     32.039      6.540      2.313    0.232 
473274.000    30.4887690124   114.5645162066     32.266      6.509      2.345    0.195 
473275.000    30.4888243985   114.5645397951     32.436      5.750      2.166    0.138 
473276.000    30.4888720953   114.5645614822     32.527      4.906      2.006    0.088 
473277.000    30.4889141504   114.5645820985     32.613      4.423      1.966    0.054 
473278.000    30.4889530570   114.5646029649     32.666      4.096      2.056    0.038 
473279.000    30.4889856424   114.5646236632     32.719      3.262      1.993    0.057 
473280.000    30.4890124249   114.5646445539     32.763      2.719      2.047    0.009 
473281.000    30.4890351869   114.5646667197     32.748      2.380      2.259   -0.054 
473282.000    30.4890552817   114.5646914644     32.684      2.169      2.640   -0.071 
473283.000    30.4890736261   114.5647207856     32.617      1.889      3.109   -0.079 
473284.000    30.4890874914   114.5647548937     32.552      1.209      3.587   -0.078 
473285.000    30.4890950264   114.5647924598     32.514      0.494      3.933   -0.055 
473286.000    30.4890964297   114.5648356360     32.475     -0.135      4.600   -0.043 
473287.000    30.4890927783   114.5648858582     32.435     -0.626      5.189   -0.049 
473288.000    30.4890855529   114.5649423242     32.390     -0.897      5.729   -0.044 
473289.000    30.4890769847   114.5650046282     32.363     -0.991      6.248   -0.018 
473290.000    30.4890676432   114.5650722397     32.363     -1.060      6.726    0.006 
473291.000    30.4890579229   114.5651438583     32.362     -1.075      6.986    0.002 
473292.000    30.4890476988   114.5652179480     32.372     -1.167      7.187    0.036 
473293.000    30.4890369831   114.5652930753     32.400     -1.203      7.185    0.036 
473294.000    30.4890262966   114.5653676019     32.416     -1.150      7.109    0.019 
473295.000    30.4890159788   114.5654410180     32.447     -1.122      6.977    0.053 
473296.000    30.4890060329   114.5655124049     32.501     -1.083      6.699    0.064 
473297.000    30.4889965189   114.5655807913     32.553     -1.008      6.413    0.046 
473298.000    30.4889882566   114.5656460484     32.608     -0.828      6.085    0.061 
473299.000    30.4889816392   114.5657089550     32.679     -0.671      6.034    0.056 
473300.000    30.4889759921   114.5657716984     32.747     -0.577      5.920    0.060 
473301.000    30.4889710506   114.5658298980     32.806     -0.504      5.223    0.066 
473302.000    30.4889669281   114.5658796364     32.873     -0.421      4.312    0.071 
473303.000    30.4889636316   114.5659198800     32.926     -0.337      3.543    0.049 
473304.000    30.4889608693   114.5659546927     32.974     -0.280      3.052    0.039 
473305.000    30.4889586311   114.5659827918     33.013     -0.245      2.573    0.027 
473306.000    30.4889565325   114.5660090224     33.051     -0.218      2.431    0.038 
473307.000    30.4889545835   114.5660332938     33.086     -0.215      2.229    0.041 
473308.000    30.4889525608   114.5660562250     33.122     -0.278      2.188    0.051 
473309.000    30.4889502087   114.5660781313     33.156     -0.273      1.958    0.020 
473310.000    30.4889477169   114.5660975011     33.185     -0.319      1.837    0.029 
473311.000    30.4889451023   114.5661152590     33.210     -0.311      1.571    0.030 
473312.000    30.4889428744   114.5661291059     33.229     -0.219      1.115    0.009 
473313.000    30.4889413469   114.5661383522     33.239     -0.138      0.671    0.013 
473314.000    30.4889405904   114.5661430531     33.245     -0.074      0.256    0.005 
473315.000    30.4889404714   114.5661438656     33.245     -0.014      0.013   -0.004 
473316.000    30.4889404736   114.5661438595     33.244     -0.053      0.009    0.011 
473317.000    30.4889404763   114.5661438629     33.243      0.046     -0.007   -0.010 
473318.000    30.4889404797   114.5661438670     33.241      0.018      0.009   -0.013 
473319.000    30.4889404780   114.5661438671     33.240     -0.043      0.009    0.003 
473320.000    30.4889404751   114.5661438657     33.240     -0.008     -0.014    0.010 
473321.000    30.4889403920   114.5661444078     33.241     -0.038      0.163    0.010 
473322.000    30.4889397274   114.5661486522     33.247     -0.141      0.653    0.012 
473323.000    30.4889382580   114.5661580245     33.259     -0.205      1.157    0.006 
473324.000    30.4889361192   114.5661717103     33.275     -0.317      1.475    0.029 
473325.000    30.4889336607   114.5661881625     33.293     -0.293      1.654    0.018 
473326.000    30.4889310614   114.5662061180     33.312     -0.346      1.772    0.024 
473327.000    30.4889284547   114.5662246741     33.332     -0.317      1.809    0.016 
473328.000    30.4889258828   114.5662447941     33.354     -0.324      2.146    0.027 
473329.000    30.4889231083   114.5662688466     33.384     -0.326      2.460    0.025 
473330.000    30.4889199141   114.5662962787     33.420     -0.424      2.842    0.052 
473331.000    30.4889160492   114.5663271537     33.458     -0.466      3.052    0.051 
473332.000    30.4889116598   114.5663600847     33.497     -0.535      3.306    0.045 
473333.000    30.4889065507   114.5663962800     33.539     -0.611      3.633    0.044 
473334.000    30.4889008677   114.5664359504     33.593     -0.667      3.982    0.051 
473335.000    30.4888946310   114.5664791185     33.654     -0.723      4.318    0.074 
473336.000    30.4888879171   114.5665258995     33.717     -0.766      4.658    0.072 
473337.000    30.4888807888   114.5665763308     33.776     -0.808      5.014    0.051 
473338.000    30.4888732901   114.5666298287     33.833     -0.862      5.221    0.068 
473339.000    30.4888654378   114.5666852453     33.901     -0.882      5.380    0.082 
473340.000    30.4888571398   114.5667426050     33.970     -0.963      5.669    0.075 
473341.000    30.4888482979   114.5668042654     34.043     -1.003      6.184    0.059 
473342.000    30.4888389009   114.5668711956     34.126     -1.055      6.673    0.084 
473343.000    30.4888297912   114.5669433946     34.220     -0.981      7.105    0.121 
473344.000    30.4888212217   114.5670199697     34.304     -0.916      7.484    0.083 
473345.000    30.4888133700   114.5670997709     34.419     -0.848      7.765    0.156 
473346.000    30.4888061793   114.5671822422     34.538     -0.764      8.041    0.108 
473347.000    30.4887995808   114.5672671996     34.648     -0.687      8.262    0.131 
473348.000    30.4887936647   114.5673544396     34.773     -0.719      8.442    0.108 
473349.000    30.4887864769   114.5674432993     34.891     -0.882      8.622    0.107 
473350.000    30.4887787935   114.5675339972     34.993     -0.818      8.800    0.106 
473351.000    30.4887729158   114.5676270712     35.106     -0.508      9.045    0.116 
473352.000    30.4887688141   114.5677230648     35.217     -0.558      9.410    0.100 
473353.000    30.4887636112   114.5678223221     35.353     -0.673      9.751    0.121 
473354.000    30.4887571432   114.5679247714     35.494     -0.861     10.015    0.146 
473355.000    30.4887488744   114.5680301357     35.636     -1.079     10.263    0.145 
473356.000    30.4887392535   114.5681380387     35.780     -0.968     10.473    0.154 
473357.000    30.4887309000   114.5682483068     35.936     -0.927     10.650    0.127 
473358.000    30.4887220761   114.5683605403     36.071     -1.006     10.900    0.075 
473359.000    30.4887112765   114.5684744481     36.197     -1.361     11.044    0.126 
473360.000    30.4886975790   114.5685899930     36.323     -1.668     11.191    0.101 
473361.000    30.4886820215   114.5687073895     36.418     -1.759     11.369    0.093 
473362.000    30.4886660307   114.5688267054     36.523     -1.769     11.584    0.124 
473363.000    30.4886499066   114.5689479416     36.609     -1.822     11.697    0.167 
473364.000    30.4886337131   114.5690710242     36.703     -1.815     11.895    0.125 
473365.000    30.4886173397   114.5691958248     36.773     -1.806     12.086    0.040 
473366.000    30.4886009607   114.5693222978     36.836     -1.852     12.202    0.052 
473367.000    30.4885845028   114.5694491777     36.893     -1.804     12.140    0.062 
473368.000    30.4885678928   114.5695762552     36.940     -1.846     12.188    0.059 
473369.000    30.4885511279   114.5697038283     36.971     -1.896     12.278    0.036 
473370.000    30.4885340110   114.5698324956     36.988     -1.908     12.472   -0.009 
473371.000    30.4885164593   114.5699629759     37.000     -1.999     12.644    0.031 
473372.000    30.4884984992   114.5700958191     37.004     -2.026     12.907   -0.018 
473373.000    30.4884799142   114.5702310805     36.984     -2.082     13.131   -0.039 
473374.000    30.4884609240   114.5703686766     36.968     -2.051     13.290   -0.040 
473375.000    30.4884417252   114.5705073180     36.936     -2.107     13.236    0.024 
473376.000    30.4884225432   114.5706455924     36.884     -2.118     13.264   -0.058 
473377.000    30.4884036005   114.5707836508     36.822     -2.098     13.244   -0.054 
473378.000    30.4883843931   114.5709216221     36.744     -2.113     13.232   -0.040 
473379.000    30.4883646015   114.5710596096     36.657     -2.233     13.242   -0.017 
473380.000    30.4883445248   114.5711977468     36.571     -2.240     13.304   -0.114 
473381.000    30.4883247392   114.5713359595     36.479     -2.145     13.288   -0.137 
473382.000    30.4883055495   114.5714743177     36.355     -2.077     13.305   -0.148 
473383.000    30.4882867165   114.5716132871     36.216     -2.093     13.380   -0.104 
473384.000    30.4882674292   114.5717539082     36.075     -2.150     13.610   -0.149 
473385.000    30.4882475171   114.5718966796     35.915     -2.271     13.809   -0.183 
473386.000    30.4882270181   114.5720408168     35.735     -2.314     13.850   -0.194 
473387.000    30.4882061433   114.5721841903     35.556     -2.311     13.737   -0.218 
473388.000    30.4881852735   114.5723263482     35.356     -2.296     13.606   -0.200 
473389.000    30.4881647339   114.5724673977     35.164     -2.234     13.487   -0.211 
473390.000    30.4881445314   114.5726074341     34.932     -2.212     13.418   -0.236 
473391.000    30.4881245479   114.5727465385     34.696     -2.209     13.433   -0.305 
473392.000    30.4881045095   114.5728847558     34.470     -2.215     13.249   -0.234 
473393.000    30.4880845696   114.5730221766     34.230     -2.218     13.193   -0.268 
473394.000    30.4880647935   114.5731589278     33.983     -2.191     13.072   -0.233 
473395.000    30.4880449410   114.5732960890     33.726     -2.217     13.289   -0.265 
473396.000    30.4880247577   114.5734357495     33.472     -2.263     13.512   -0.257 
473397.000    30.4880043289   114.5735780227     33.210     -2.247     13.775   -0.256 
473398.000    30.4879838429   114.5737228693     32.947     -2.273     14.031   -0.266 
473399.000    30.4879633630   114.5738702057     32.677     -2.296     14.218   -0.255 
473400.000    30.4879427822   114.5740199546     32.395     -2.271     14.504   -0.311 
473401.000    30.4879220426   114.5741719760     32.116     -2.326     14.648   -0.265 
473402.000    30.4879009512   114.5743244075     31.829     -2.338     14.549   -0.287 
473403.000    30.4878797263   114.5744749904     31.532     -2.350     14.361   -0.310 
473404.000    30.4878586199   114.5746233762     31.263     -2.324     14.079   -0.199 
473405.000    30.4878377782   114.5747695640     31.001     -2.234     13.927   -0.317 
473406.000    30.4878175890   114.5749134102     30.753     -2.191     13.708   -0.262 
473407.000    30.4877981655   114.5750552548     30.499     -2.116     13.570   -0.282 
473408.000    30.4877792089   114.5751949059     30.231     -2.111     13.312   -0.220 
473409.000    30.4877604732   114.5753324337     29.996     -2.078     13.056   -0.240 
473410.000    30.4877418792   114.5754676927     29.736     -2.054     12.895   -0.262 
473411.000    30.4877234773   114.5756007373     29.492     -2.021     12.682   -0.231 
473412.000    30.4877053144   114.5757315214     29.256     -2.018     12.443   -0.238 
473413.000    30.4876871913   114.5758601955     29.018     -2.038     12.293   -0.218 
473414.000    30.4876688937   114.5759880679     28.803     -2.020     12.286   -0.234 
473415.000    30.4876507592   114.5761159934     28.562     -1.995     12.311   -0.254 
473416.000    30.4876331491   114.5762441118     28.331     -1.924     12.293   -0.207 
473417.000    30.4876159290   114.5763723766     28.107     -1.943     12.309   -0.218 
473418.000    30.4875981329   114.5765008926     27.871     -2.056     12.376   -0.226 
473419.000    30.4875795684   114.5766295983     27.631     -2.090     12.295   -0.247 
473420.000    30.4875609272   114.5767565736     27.390     -2.064     12.089   -0.222 
473421.000    30.4875425498   114.5768814170     27.153     -2.004     11.882   -0.219 
473422.000    30.4875246674   114.5770040366     26.928     -1.960     11.663   -0.218 
473423.000    30.4875075683   114.5771243834     26.710     -1.845     11.408   -0.202 
473424.000    30.4874910289   114.5772423934     26.503     -1.851     11.232   -0.235 
