
GPSTime         Latitude        Longitude      H-Ell      Vel-N      Vel-E    Vel-U       Q  
(sec)            (Deg)            (Deg)        (m)      (m/s)      (m/s)    (m/s)          
566071.000    22.5624365905   114.0344108570     19.567      2.917     16.860    0.222       1 
566072.000    22.5624633525   114.0345745617     19.752      2.957     16.735    0.173       1 
566073.000    22.5624907193   114.0347358664     19.913      3.063     16.477    0.167       1 
566074.000    22.5625188006   114.0348955689     20.088      3.097     16.412    0.190       1 
566075.000    22.5625468552   114.0350549241     20.281      3.135     16.386    0.184       1 
566076.000    22.5625757062   114.0352140904     20.466      3.235     16.389    0.147       1 
566077.000    22.5626047764   114.0353733173     20.651      3.215     16.423    0.216       1 
566078.000    22.5626330936   114.0355331413     20.830      3.095     16.498    0.178       1 
566079.000    22.5626603257   114.0356940161     21.011      2.966     16.585    0.184       1 
566080.000    22.5626870351   114.0358560263     21.190      2.974     16.696    0.164       1 
566081.000    22.5627146223   114.0360189285     21.373      3.117     16.748    0.211       0 
566082.000    22.5627434479   114.0361807072     21.564      3.193     16.575    0.170       0 
566083.000    22.5627715104   114.0363404407     21.729      3.065     16.376    0.166       0 
566084.000    22.5627991186   114.0364986728     21.817      3.052     16.157    0.039       0 
566085.000    22.5628266496   114.0366546795     21.877      3.038     15.930   -0.029       0 
566086.000    22.5628539108   114.0368080632     21.857      3.022     15.665   -0.076       0 
566087.000    22.5628809849   114.0369591803     21.747      2.996     15.453   -0.100       1 
566088.000    22.5629075916   114.0371085119     21.613      2.900     15.282   -0.189       1 
566089.000    22.5629329232   114.0372565539     21.404      2.779     15.197   -0.250       1 
566090.000    22.5629577998   114.0374035448     21.127      2.755     15.050   -0.309       1 
566091.000    22.5629829546   114.0375497350     20.787      2.829     15.026   -0.297       1 
566092.000    22.5630097429   114.0376951323     20.422      3.037     14.926   -0.403       1 
566093.000    22.5630370943   114.0378401116     20.033      3.015     14.874   -0.385       1 
566094.000    22.5630636945   114.0379850361     19.657      2.902     14.914   -0.403       1 
566095.000    22.5630886961   114.0381300089     19.279      2.693     14.977   -0.346       1 
566096.000    22.5631121075   114.0382757048     18.885      2.607     15.000   -0.390       1 
566097.000    22.5631369981   114.0384224123     18.486      2.806     15.143   -0.384       1 
566098.000    22.5631624879   114.0385702872     18.102      2.847     15.273   -0.396       1 
566099.000    22.5631887437   114.0387195070     17.695      2.931     15.410   -0.385       1 
566100.000    22.5632153473   114.0388703115     17.276      2.959     15.591   -0.411       1 
566101.000    22.5632420364   114.0390227041     16.863      2.976     15.729   -0.403       0 
566102.000    22.5632689272   114.0391768817     16.443      2.962     15.982   -0.462       0 
566103.000    22.5632958465   114.0393340079     15.989      3.012     16.367   -0.458       0 
566104.000    22.5633231446   114.0394948344     15.519      3.062     16.727   -0.523       0 
566105.000    22.5633514985   114.0396592426     15.062      3.201     17.109   -0.395       0 
566106.000    22.5633813557   114.0398269924     14.676      3.387     17.397   -0.381       0 
566107.000    22.5634130435   114.0399977654     14.449      3.587     17.664   -0.171       0 
566108.000    22.5634461893   114.0401710630     14.332      3.705     17.980    0.012       0 
566109.000    22.5634792223   114.0403465357     14.345      3.656     18.095    0.053       0 
566110.000    22.5635129881   114.0405233706     14.507      3.777     18.226    0.262       0 
566111.000    22.5635479127   114.0407008582     14.778      3.925     18.250    0.287       0 
566112.000    22.5635851421   114.0408783801     15.011      4.238     18.243    0.262       0 
566113.000    22.5636251820   114.0410557435     15.256      4.529     18.165    0.276       0 
566114.000    22.5636676636   114.0412329313     15.497      4.785     18.243    0.257       0 
566115.000    22.5637118809   114.0414100060     15.785      4.964     18.187    0.249       1 
566116.000    22.5637567018   114.0415862252     16.034      4.902     17.994    0.278       1 
566117.000    22.5638008745   114.0417589271     16.296      4.877     17.544    0.261       1 
566118.000    22.5638450844   114.0419273436     16.560      4.888     17.110    0.200       1 
566119.000    22.5638893756   114.0420916010     16.728      4.896     16.670    0.092       1 
566120.000    22.5639340434   114.0422522379     16.804      4.965     16.361    0.056       0 
566121.000    22.5639791223   114.0424099429     16.770      4.996     16.066   -0.093       0 
566122.000    22.5640252326   114.0425650421     16.661      5.160     15.790   -0.185       0 
566123.000    22.5640731219   114.0427177554     16.472      5.332     15.621   -0.249       0 
566124.000    22.5641207108   114.0428693624     16.168      5.203     15.583   -0.257       0 
566125.000    22.5641669016   114.0430207589     15.794      5.054     15.547   -0.369       0 
566126.000    22.5642125096   114.0431718863     15.403      5.048     15.527   -0.378       1 
566127.000    22.5642583989   114.0433225686     15.002      5.100     15.505   -0.394       1 
566128.000    22.5643047104   114.0434727446     14.602      5.149     15.422   -0.349       1 
566129.000    22.5643515074   114.0436221281     14.310      5.192     15.293   -0.214       1 
566130.000    22.5643987125   114.0437698300     14.204      5.202     15.134   -0.036       1 
566131.000    22.5644447284   114.0439154560     14.249      5.035     14.813    0.121       1 
566132.000    22.5644895145   114.0440583385     14.367      4.907     14.535    0.080       1 
566133.000    22.5645330782   114.0441984115     14.453      4.773     14.292    0.067       1 
566134.000    22.5645756042   114.0443355954     14.567      4.656     13.929    0.100       1 
566135.000    22.5646174071   114.0444696470     14.682      4.579     13.628    0.136       1 
566136.000    22.5646577104   114.0446008875     14.792      4.332     13.420    0.157       0 
566137.000    22.5646949496   114.0447296764     14.943      4.049     13.180    0.029       0 
566138.000    22.5647294698   114.0448557598     15.046      3.654     12.919    0.111       0 
566139.000    22.5647575310   114.0449808439     15.146      2.872     12.972    0.079       0 
566140.000    22.5647822693   114.0451070941     15.226      2.757     13.075    0.093       0 
566141.000    22.5648074724   114.0452348169     15.328      2.813     13.209    0.106       1 
566142.000    22.5648328323   114.0453640870     15.421      2.827     13.373    0.099       1 
566143.000    22.5648583201   114.0454948769     15.527      2.819     13.515    0.125       1 
566144.000    22.5648842300   114.0456271482     15.629      2.917     13.684    0.101       1 
566145.000    22.5649091181   114.0457612495     15.730      2.655     13.960    0.118       1 
566146.000    22.5649312882   114.0458975692     15.844      2.413     14.113    0.138       1 
566147.000    22.5649528572   114.0460357566     15.958      2.390     14.303    0.109       1 
566148.000    22.5649740431   114.0461756311     16.057      2.353     14.600    0.085       1 
566149.000    22.5649888907   114.0463179005     16.141      1.311     14.862    0.078       1 
566150.000    22.5649981805   114.0464623207     16.229      1.040     14.935    0.074       1 
566151.000    22.5650086148   114.0466086420     16.325      1.216     15.189    0.109       1 
566152.000    22.5650187321   114.0467572078     16.409      1.069     15.447    0.049       1 
566153.000    22.5650260048   114.0469083132     16.505      0.666     15.728    0.110       0 
566154.000    22.5650305890   114.0470620064     16.597      0.493     15.979    0.116       0 
566155.000    22.5650345646   114.0472181759     16.690      0.420     16.187    0.092       0 
566156.000    22.5650374635   114.0473765828     16.805      0.262     16.461    0.106       0 
566157.000    22.5650374204   114.0475371120     16.909     -0.120     16.642    0.134       0 
566158.000    22.5650346694   114.0476983503     17.007     -0.381     16.533    0.107       0 
566159.000    22.5650294028   114.0478586684     17.087     -0.655     16.553    0.033       1 
566160.000    22.5650227067   114.0480202634     17.167     -0.772     16.701    0.087       1 
566161.000    22.5650149554   114.0481833066     17.294     -0.908     16.841    0.155       1 
566162.000    22.5650065390   114.0483475155     17.417     -0.921     16.976    0.125       0 
566163.000    22.5649978489   114.0485128096     17.518     -0.951     17.029    0.136       0 
566164.000    22.5649897180   114.0486790549     17.620     -0.888     17.146    0.116       0 
566165.000    22.5649820566   114.0488461011     17.718     -0.841     17.173    0.122       0 
566166.000    22.5649743736   114.0490137323     17.822     -0.898     17.174    0.119       1 
566167.000    22.5649652600   114.0491795210     17.951     -1.052     16.938    0.140       1 
566168.000    22.5649559150   114.0493443751     18.067     -1.025     16.978    0.141       1 
566169.000    22.5649467655   114.0495095637     18.181     -1.000     17.028    0.098       1 
566170.000    22.5649381459   114.0496752484     18.297     -0.917     17.010    0.082       1 
566171.000    22.5649304430   114.0498413587     18.408     -0.869     17.113    0.101       2 
566172.000    22.5649217882   114.0500080403     18.517     -0.984     17.223    0.098       0 
566173.000    22.5649121775   114.0501756395     18.613     -1.082     17.327    0.082       0 
566174.000    22.5649026778   114.0503442996     18.730     -1.011     17.397    0.084       0 
566175.000    22.5648937277   114.0505141170     18.859     -0.947     17.495    0.106       0 
566176.000    22.5648862175   114.0506851289     18.979     -0.790     17.647    0.147       0 
566177.000    22.5648787329   114.0508572522     19.107     -0.865     17.751    0.142       1 
566178.000    22.5648705852   114.0510303237     19.243     -0.895     17.904    0.109       1 
566179.000    22.5648618904   114.0512044826     19.364     -1.007     17.979    0.158       1 
566180.000    22.5648524790   114.0513798346     19.485     -1.063     18.082    0.141       1 
566181.000    22.5648435495   114.0515563680     19.612     -0.908     18.201    0.081       1 
566182.000    22.5648367951   114.0517339699     19.747     -0.618     18.344    0.131       1 
566183.000    22.5648302516   114.0519125702     19.880     -0.814     18.473    0.156       1 
566184.000    22.5648209079   114.0520922203     20.011     -1.092     18.503    0.110       1 
566185.000    22.5648110449   114.0522732880     20.131     -1.118     18.702    0.147       1 
566186.000    22.5648014061   114.0524559542     20.254     -1.004     18.820    0.097       1 
566187.000    22.5647952419   114.0526401752     20.373     -0.474     18.939    0.103       1 
566188.000    22.5647942261   114.0528236775     20.501      0.070     18.791    0.166       1 
566189.000    22.5647982062   114.0530067133     20.636      0.628     18.793    0.120       1 
566190.000    22.5648068873   114.0531895929     20.776      1.084     18.839    0.097       1 
566191.000    22.5648185815   114.0533724120     20.910      1.381     18.775    0.171       1 
566192.000    22.5648335586   114.0535553494     21.025      1.805     18.767    0.132       1 
566193.000    22.5648511901   114.0537384871     21.158      1.938     18.832    0.158       1 
566194.000    22.5648698011   114.0539221373     21.283      2.198     18.857    0.100       0 
566195.000    22.5648919945   114.0541061707     21.397      2.577     18.871    0.130       0 
566196.000    22.5649177891   114.0542897538     21.538      2.979     18.685    0.156       0 
566197.000    22.5649473502   114.0544698121     21.677      3.464     18.253    0.097       0 
566198.000    22.5649809924   114.0546454057     21.797      3.740     17.891    0.127       0 
566199.000    22.5650149619   114.0548185803     21.891      3.786     17.742    0.098       0 
566200.000    22.5650499911   114.0549903522     21.970      3.950     17.575    0.080       1 
566201.000    22.5650878568   114.0551605549     22.032      4.344     17.394    0.041       1 
566202.000    22.5651305965   114.0553292668     22.087      4.927     17.272    0.059       1 
566203.000    22.5651768488   114.0554975910     22.149      5.288     17.318    0.112       1 
566204.000    22.5652260326   114.0556662718     22.189      5.523     17.367    0.042       1 
566205.000    22.5652787043   114.0558351216     22.244      6.028     17.352    0.046       1 
566206.000    22.5653344537   114.0560042226     22.301      6.232     17.452    0.051       1 
566207.000    22.5653922371   114.0561739228     22.351      6.589     17.412    0.081       1 
566208.000    22.5654546799   114.0563431236     22.415      7.037     17.392    0.100       1 
566209.000    22.5655194798   114.0565116928     22.485      7.225     17.177    0.083       1 
566210.000    22.5655863490   114.0566774341     22.567      7.574     16.847    0.065       1 
566211.000    22.5656560670   114.0568410712     22.664      7.784     16.779    0.118       1 
566212.000    22.5657287806   114.0570032670     22.785      8.192     16.550    0.157       0 
566213.000    22.5658036285   114.0571628110     22.919      8.303     16.333    0.166       0 
566214.000    22.5658787772   114.0573207207     23.066      8.316     16.103    0.148       0 
566215.000    22.5659545937   114.0574770433     23.223      8.383     16.011    0.162       0 
566216.000    22.5660306842   114.0576324956     23.382      8.447     15.980    0.180       0 
566217.000    22.5661078255   114.0577874560     23.534      8.639     15.953    0.097       0 
566218.000    22.5661859637   114.0579429811     23.668      8.669     16.080    0.130       0 
566219.000    22.5662643556   114.0580999462     23.716      8.703     16.219    0.035       0 
566220.000    22.5663429555   114.0582584538     23.730      8.668     16.316   -0.066       0 
566221.000    22.5664208353   114.0584165248     23.640      8.605     16.178   -0.100       0 
566222.000    22.5664986616   114.0585739772     23.471      8.623     16.169   -0.199       1 
566223.000    22.5665771504   114.0587321836     23.243      8.726     16.354   -0.265       1 
566224.000    22.5666563952   114.0588920190     22.958      8.827     16.489   -0.273       1 
566225.000    22.5667367729   114.0590537448     22.661      8.957     16.755   -0.321       1 
566226.000    22.5668179102   114.0592177300     22.323      9.028     16.966   -0.343       1 
566227.000    22.5669001938   114.0593836761     21.963      9.137     17.163   -0.326       1 
566228.000    22.5669836718   114.0595515574     21.584      9.303     17.366   -0.451       1 
566229.000    22.5670676944   114.0597217149     21.172      9.347     17.615   -0.490       1 
566230.000    22.5671527762   114.0598938716     20.705      9.476     17.795   -0.437       1 
566231.000    22.5672386500   114.0600680044     20.229      9.499     18.016   -0.468       0 
566232.000    22.5673243487   114.0602441171     19.732      9.452     18.125   -0.475       0 
566233.000    22.5674097749   114.0604197786     19.195      9.486     18.033   -0.529       0 
566234.000    22.5674950943   114.0605942307     18.696      9.406     17.918   -0.481       0 
566235.000    22.5675793704   114.0607681219     18.257      9.243     17.905   -0.387       0 
566236.000    22.5676628197   114.0609413873     17.845      9.249     17.738   -0.348       1 
566237.000    22.5677454447   114.0611133462     17.553      9.046     17.669   -0.216       1 
566238.000    22.5678259355   114.0612843502     17.310      8.867     17.474   -0.228       1 
566239.000    22.5679052061   114.0614522898     17.079      8.644     16.986   -0.214       1 
566240.000    22.5679805098   114.0616144138     16.881      8.051     16.376   -0.233       1 
566241.000    22.5680499535   114.0617706823     16.702      7.395     15.745   -0.151       1 
566242.000    22.5681126506   114.0619207804     16.546      6.672     15.386   -0.138       1 
566243.000    22.5681688458   114.0620698562     16.429      5.958     15.377   -0.074       1 
566244.000    22.5682185607   114.0622191912     16.394      5.250     15.336   -0.048       0 
566245.000    22.5682634186   114.0623678038     16.376      4.787     15.296    0.035       0 
566246.000    22.5683027396   114.0625164904     16.431      4.101     15.357    0.086       0 
566247.000    22.5683360822   114.0626649835     16.476      3.501     15.196   -0.002       0 
566248.000    22.5683657643   114.0628115055     16.543      3.184     14.983    0.050       0 
566249.000    22.5683920796   114.0629559472     16.569      2.760     14.831    0.013       0 
566250.000    22.5684135123   114.0630985803     16.635      2.175     14.603    0.108       0 
566251.000    22.5684317968   114.0632388980     16.725      1.950     14.400    0.091       0 
566252.000    22.5684479417   114.0633787535     16.814      1.738     14.432    0.075       2 
566253.000    22.5684632851   114.0635197608     16.884      1.725     14.572    0.077       2 
566254.000    22.5684796335   114.0636622529     16.956      1.837     14.723    0.124       2 
566255.000    22.5684970427   114.0638067569     17.037      1.983     15.000    0.145       2 
566256.000    22.5685150716   114.0639521360     17.157      1.972     14.951    0.162       2 
566257.000    22.5685322759   114.0640978063     17.338      1.873     15.045    0.257       1 
566258.000    22.5685487694   114.0642446743     17.622      1.817     15.182    0.298       1 
566259.000    22.5685648442   114.0643924276     17.980      1.787     15.273    0.361       1 
566260.000    22.5685806997   114.0645409430     18.353      1.751     15.324    0.364       1 
566261.000    22.5685970333   114.0646903385     18.696      1.844     15.402    0.339       1 
566262.000    22.5686145159   114.0648410966     18.942      1.986     15.626    0.202       2 
566263.000    22.5686323067   114.0649941406     19.091      1.993     15.903    0.089       2 
566264.000    22.5686503230   114.0651501091     19.200      2.007     16.225   -0.011       0 
566265.000    22.5686687519   114.0653099695     19.060      2.086     16.669   -0.180       0 
566266.000    22.5686884413   114.0654744345     18.883      2.252     17.170   -0.256       0 
566267.000    22.5687088496   114.0656437888     18.631      2.261     17.654   -0.344       0 
566268.000    22.5687279677   114.0658153845     18.208      2.041     17.680   -0.446       0 
566269.000    22.5687461711   114.0659873874     17.803      2.075     17.768   -0.413       0 
566270.000    22.5687654868   114.0661610096     17.398      2.164     17.885   -0.395       0 
566271.000    22.5687854940   114.0663346505     16.963      2.225     17.806   -0.522       2 
566272.000    22.5688061041   114.0665078223     16.510      2.310     17.793   -0.408       2 
566273.000    22.5688262712   114.0666803981     16.102      2.164     17.716   -0.423       2 
566274.000    22.5688443252   114.0668509140     15.665      1.931     17.407   -0.427       2 
566275.000    22.5688626057   114.0670189301     15.302      2.034     16.980   -0.268       2 
566276.000    22.5688814976   114.0671820037     15.101      2.101     16.552   -0.112       2 
