
GPSTime         Latitude        Longitude      H-Ell      Vel-N      Vel-E    Vel-U       Q  
(sec)            (Deg)            (Deg)        (m)      (m/s)      (m/s)    (m/s)          
566071.000    22.5624337252   114.0344028891     20.009      2.906     16.842    0.207       1 
566072.000    22.5624604558   114.0345666226     20.197      2.963     16.752    0.178       1 
566073.000    22.5624877582   114.0347279575     20.358      3.066     16.498    0.164       1 
566074.000    22.5625158265   114.0348876585     20.532      3.090     16.423    0.172       1 
566075.000    22.5625438603   114.0350470219     20.725      3.138     16.386    0.192       1 
566076.000    22.5625726882   114.0352062014     20.911      3.244     16.386    0.165       1 
566077.000    22.5626017684   114.0353654164     21.094      3.210     16.414    0.209       1 
566078.000    22.5626301339   114.0355252195     21.273      3.095     16.497    0.178       1 
566079.000    22.5626574310   114.0356860692     21.455      2.969     16.607    0.182       1 
566080.000    22.5626841293   114.0358480918     21.635      2.984     16.706    0.179       1 
566081.000    22.5627116503   114.0360110093     21.816      3.106     16.743    0.192       0 
566082.000    22.5627404400   114.0361728182     22.010      3.211     16.613    0.191       0 
566083.000    22.5627685521   114.0363325276     22.173      3.072     16.392    0.174       0 
566084.000    22.5627961476   114.0364908108     22.271      3.033     16.153    0.004       0 
566085.000    22.5628236720   114.0366468418     22.334      3.050     15.931   -0.006       0 
566086.000    22.5628509252   114.0368002377     22.316      3.032     15.645   -0.049       0 
566087.000    22.5628779852   114.0369513688     22.207      2.993     15.444   -0.103       1 
566088.000    22.5629046347   114.0371006961     22.076      2.915     15.290   -0.163       1 
566089.000    22.5629300062   114.0372487375     21.870      2.786     15.183   -0.231       1 
566090.000    22.5629548802   114.0373957578     21.598      2.763     15.065   -0.298       1 
566091.000    22.5629799903   114.0375419723     21.259      2.820     15.020   -0.312       1 
566092.000    22.5630066941   114.0376874396     20.899      3.042     14.927   -0.394       1 
566093.000    22.5630340455   114.0378324092     20.509      3.012     14.864   -0.388       1 
566094.000    22.5630607038   114.0379773048     20.133      2.902     14.884   -0.392       1 
566095.000    22.5630858172   114.0381222331     19.755      2.685     14.966   -0.357       1 
566096.000    22.5631092310   114.0382679272     19.360      2.606     15.032   -0.403       1 
566097.000    22.5631340692   114.0384146529     18.961      2.790     15.101   -0.399       1 
566098.000    22.5631595431   114.0385625328     18.576      2.851     15.286   -0.391       1 
566099.000    22.5631857748   114.0387117621     18.169      2.926     15.411   -0.396       1 
566100.000    22.5632123995   114.0388625578     17.750      2.953     15.573   -0.415       1 
566101.000    22.5632390766   114.0390149560     17.337      2.976     15.735   -0.404       0 
566102.000    22.5632659886   114.0391691307     16.919      2.973     16.006   -0.450       0 
566103.000    22.5632929364   114.0393262410     16.465      3.012     16.366   -0.458       0 
566104.000    22.5633202321   114.0394870839     15.997      3.082     16.731   -0.486       0 
566105.000    22.5633485476   114.0396514724     15.533      3.219     17.120   -0.365       0 
566106.000    22.5633783645   114.0398192317     15.146      3.383     17.389   -0.388       0 
566107.000    22.5634099807   114.0399899801     14.909      3.588     17.661   -0.168       0 
566108.000    22.5634430948   114.0401632389     14.783      3.694     17.952    0.001       0 
566109.000    22.5634761416   114.0403387069     14.796      3.645     18.124    0.021       0 
566110.000    22.5635098637   114.0405155065     14.947      3.768     18.228    0.245       0 
566111.000    22.5635447223   114.0406930197     15.217      3.925     18.258    0.284       0 
566112.000    22.5635818367   114.0408706045     15.452      4.247     18.269    0.269       0 
566113.000    22.5636217558   114.0410480219     15.695      4.532     18.203    0.268       0 
566114.000    22.5636641638   114.0412252514     15.937      4.789     18.248    0.264       0 
566115.000    22.5637083091   114.0414023617     16.225      4.981     18.227    0.266       1 
566116.000    22.5637531471   114.0415785903     16.477      4.903     18.013    0.274       1 
566117.000    22.5637972874   114.0417513151     16.740      4.878     17.548    0.260       1 
566118.000    22.5638414391   114.0419197773     17.006      4.886     17.101    0.199       1 
566119.000    22.5638856878   114.0420840961     17.181      4.897     16.705    0.082       1 
566120.000    22.5639303062   114.0422447764     17.259      4.956     16.343    0.045       0 
566121.000    22.5639753485   114.0424025316     17.230      5.018     16.078   -0.055       0 
566122.000    22.5640213509   114.0425577209     17.126      5.175     15.815   -0.166       0 
566123.000    22.5640691827   114.0427104937     16.941      5.336     15.597   -0.233       0 
566124.000    22.5641168186   114.0428620938     16.640      5.193     15.587   -0.278       0 
566125.000    22.5641630745   114.0430134736     16.270      5.051     15.543   -0.375       0 
566126.000    22.5642086635   114.0431646203     15.880      5.047     15.539   -0.385       1 
566127.000    22.5642545262   114.0433153144     15.479      5.096     15.503   -0.400       1 
566128.000    22.5643008155   114.0434654933     15.077      5.148     15.428   -0.353       1 
566129.000    22.5643475450   114.0436148687     14.777      5.195     15.314   -0.214       1 
566130.000    22.5643947364   114.0437625160     14.660      5.206     15.121   -0.023       1 
566131.000    22.5644407541   114.0439080916     14.697      5.026     14.790    0.113       1 
566132.000    22.5644855545   114.0440509664     14.815      4.907     14.515    0.088       1 
566133.000    22.5645291459   114.0441910479     14.905      4.763     14.274    0.054       1 
566134.000    22.5645716620   114.0443282254     15.017      4.655     13.939    0.095       1 
566135.000    22.5646134786   114.0444622595     15.131      4.573     13.609    0.132       1 
566136.000    22.5646538675   114.0445934365     15.239      4.328     13.415    0.152       0 
566137.000    22.5646911966   114.0447221837     15.391      4.075     13.173    0.080       0 
566138.000    22.5647259048   114.0448481660     15.496      3.642     12.885    0.101       0 
566139.000    22.5647543501   114.0449730449     15.593      2.873     12.946    0.090       0 
566140.000    22.5647791228   114.0450992722     15.672      2.756     13.070    0.093       0 
566141.000    22.5648043314   114.0452270045     15.777      2.814     13.218    0.105       1 
566142.000    22.5648297057   114.0453562633     15.869      2.825     13.379    0.095       1 
566143.000    22.5648551935   114.0454870425     15.972      2.824     13.544    0.125       1 
566144.000    22.5648810907   114.0456193316     16.077      2.916     13.671    0.103       1 
566145.000    22.5649061639   114.0457533448     16.177      2.644     13.924    0.110       1 
566146.000    22.5649284373   114.0458896135     16.290      2.409     14.106    0.132       1 
566147.000    22.5649500407   114.0460277976     16.405      2.388     14.301    0.106       1 
566148.000    22.5649713235   114.0461676367     16.506      2.347     14.531    0.097       1 
566149.000    22.5649867199   114.0463097207     16.590      1.303     14.822    0.077       1 
566150.000    22.5649960622   114.0464541184     16.678      1.039     14.941    0.070       1 
566151.000    22.5650064378   114.0466004556     16.773      1.210     15.179    0.100       1 
566152.000    22.5650166527   114.0467489945     16.857      1.073     15.428    0.063       1 
566153.000    22.5650241314   114.0469000365     16.952      0.657     15.711    0.100       0 
566154.000    22.5650287733   114.0470537190     17.045      0.495     16.001    0.113       0 
566155.000    22.5650327860   114.0472098732     17.137      0.427     16.193    0.103       0 
566156.000    22.5650357987   114.0473682463     17.251      0.261     16.416    0.120       0 
566157.000    22.5650359168   114.0475287471     17.357     -0.129     16.640    0.119       0 
566158.000    22.5650332990   114.0476899647     17.455     -0.390     16.490    0.106       0 
566159.000    22.5650281414   114.0478502810     17.539     -0.653     16.541    0.040       1 
566160.000    22.5650214786   114.0480118514     17.615     -0.770     16.696    0.092       1 
566161.000    22.5650137905   114.0481748647     17.738     -0.914     16.836    0.145       1 
566162.000    22.5650053871   114.0483390872     17.864     -0.928     16.965    0.115       0 
566163.000    22.5649966885   114.0485043902     17.967     -0.966     17.031    0.107       0 
566164.000    22.5649885375   114.0486706322     18.068     -0.894     17.148    0.104       0 
566165.000    22.5649808535   114.0488376866     18.166     -0.842     17.193    0.113       0 
566166.000    22.5649732258   114.0490053130     18.271     -0.909     17.151    0.107       1 
566167.000    22.5649641607   114.0491710835     18.398     -1.055     16.953    0.128       1 
566168.000    22.5649548229   114.0493359358     18.514     -1.032     16.957    0.136       1 
566169.000    22.5649456417   114.0495011343     18.628     -0.996     17.021    0.108       1 
566170.000    22.5649369767   114.0496668263     18.744     -0.916     16.999    0.087       1 
566171.000    22.5649292733   114.0498329427     18.857     -0.872     17.121    0.092       2 
566172.000    22.5649206679   114.0499996111     18.966     -0.984     17.211    0.103       0 
566173.000    22.5649110937   114.0501672081     19.062     -1.077     17.312    0.097       0 
566174.000    22.5649015560   114.0503358729     19.179     -1.012     17.381    0.088       0 
566175.000    22.5648925571   114.0505056948     19.307     -0.943     17.501    0.110       0 
566176.000    22.5648849868   114.0506767078     19.425     -0.782     17.659    0.157       0 
566177.000    22.5648775369   114.0508488310     19.554     -0.871     17.722    0.140       1 
566178.000    22.5648694015   114.0510218874     19.688     -0.888     17.873    0.134       1 
566179.000    22.5648607451   114.0511960545     19.811     -1.005     18.003    0.154       1 
566180.000    22.5648513436   114.0513714025     19.932     -1.063     18.084    0.141       1 
566181.000    22.5648423682   114.0515479505     20.060     -0.908     18.198    0.083       1 
566182.000    22.5648354915   114.0517255661     20.194     -0.626     18.322    0.126       1 
566183.000    22.5648290754   114.0519041404     20.326     -0.823     18.453    0.145       1 
566184.000    22.5648197883   114.0520837860     20.458     -1.086     18.520    0.115       1 
566185.000    22.5648099410   114.0522648441     20.577     -1.130     18.691    0.130       1 
566186.000    22.5648002003   114.0524475346     20.701     -0.996     18.853    0.100       1 
566187.000    22.5647938085   114.0526317963     20.820     -0.467     18.957    0.110       1 
566188.000    22.5647925695   114.0528153431     20.947      0.067     18.823    0.149       1 
566189.000    22.5647963287   114.0529984346     21.082      0.637     18.821    0.129       1 
566190.000    22.5648048213   114.0531813601     21.221      1.120     18.910    0.140       1 
566191.000    22.5648163939   114.0533642165     21.355      1.381     18.810    0.158       1 
566192.000    22.5648312196   114.0535472107     21.472      1.807     18.789    0.129       1 
566193.000    22.5648488210   114.0537303498     21.604      1.939     18.856    0.153       1 
566194.000    22.5648672976   114.0539140593     21.730      2.202     18.863    0.105       0 
566195.000    22.5648893347   114.0540981428     21.843      2.587     18.910    0.136       0 
566196.000    22.5649149764   114.0542817893     21.985      2.980     18.701    0.153       0 
566197.000    22.5649443039   114.0544619605     22.126      3.475     18.289    0.104       0 
566198.000    22.5649778656   114.0546375951     22.247      3.742     17.902    0.129       0 
566199.000    22.5650118036   114.0548107827     22.341      3.779     17.742    0.085       0 
566200.000    22.5650467334   114.0549826022     22.420      3.945     17.587    0.066       1 
566201.000    22.5650844031   114.0551528977     22.481      4.357     17.418    0.057       1 
566202.000    22.5651269459   114.0553217330     22.539      4.928     17.285    0.058       1 
566203.000    22.5651730464   114.0554901270     22.598      5.292     17.342    0.112       1 
566204.000    22.5652221510   114.0556588649     22.639      5.537     17.391    0.060       1 
566205.000    22.5652746551   114.0558278128     22.693      6.033     17.363    0.053       1 
566206.000    22.5653303613   114.0559969497     22.751      6.231     17.456    0.050       1 
566207.000    22.5653880016   114.0561667437     22.801      6.587     17.422    0.072       1 
566208.000    22.5654503073   114.0563360445     22.865      7.030     17.410    0.081       1 
566209.000    22.5655150256   114.0565046828     22.937      7.225     17.202    0.074       1 
566210.000    22.5655817338   114.0566705392     23.018      7.588     16.888    0.076       1 
566211.000    22.5656513800   114.0568342272     23.115      7.791     16.804    0.121       1 
566212.000    22.5657239511   114.0569965412     23.235      8.193     16.571    0.149       0 
566213.000    22.5657987519   114.0571561264     23.370      8.303     16.330    0.167       0 
566214.000    22.5658738740   114.0573140665     23.519      8.322     16.120    0.155       0 
566215.000    22.5659496470   114.0574704173     23.673      8.386     16.018    0.165       0 
566216.000    22.5660257141   114.0576258879     23.832      8.444     15.976    0.175       0 
566217.000    22.5661028049   114.0577809058     23.986      8.628     15.912    0.090       0 
566218.000    22.5661809472   114.0579364303     24.121      8.679     16.096    0.143       0 
566219.000    22.5662593706   114.0580934002     24.174      8.692     16.212    0.016       0 
566220.000    22.5663379974   114.0582519045     24.191      8.673     16.312   -0.055       0 
566221.000    22.5664158726   114.0584099893     24.103      8.604     16.160   -0.095       0 
566222.000    22.5664936986   114.0585674725     23.938      8.621     16.185   -0.209       1 
566223.000    22.5665721742   114.0587256931     23.711      8.729     16.339   -0.255       1 
566224.000    22.5666514075   114.0588855539     23.428      8.822     16.516   -0.290       1 
566225.000    22.5667317843   114.0590472760     23.130      8.961     16.743   -0.310       1 
566226.000    22.5668129273   114.0592112618     22.793      9.030     16.984   -0.346       1 
566227.000    22.5668951684   114.0593772146     22.428      9.145     17.222   -0.332       1 
566228.000    22.5669786488   114.0595451158     22.053      9.317     17.361   -0.424       1 
566229.000    22.5670626716   114.0597152715     21.640      9.364     17.630   -0.463       1 
566230.000    22.5671477291   114.0598874341     21.171      9.472     17.791   -0.444       1 
566231.000    22.5672336488   114.0600615501     20.698      9.491     18.037   -0.491       0 
566232.000    22.5673193515   114.0602376547     20.201      9.449     18.124   -0.480       0 
566233.000    22.5674047531   114.0604133550     19.666      9.481     18.016   -0.533       0 
566234.000    22.5674900663   114.0605878049     19.166      9.401     17.933   -0.495       0 
566235.000    22.5675743955   114.0607616351     18.725      9.236     17.923   -0.408       0 
566236.000    22.5676578235   114.0609348959     18.310      9.251     17.717   -0.337       1 
566237.000    22.5677405262   114.0611067631     18.014      9.031     17.644   -0.236       1 
566238.000    22.5678210390   114.0612777539     17.772      8.876     17.481   -0.213       1 
566239.000    22.5679003108   114.0614457105     17.544      8.632     16.973   -0.232       1 
566240.000    22.5679757249   114.0616077468     17.347      8.049     16.352   -0.228       1 
566241.000    22.5680452863   114.0617639159     17.167      7.382     15.712   -0.164       1 
566242.000    22.5681081816   114.0619138542     17.010      6.666     15.336   -0.132       1 
566243.000    22.5681646393   114.0620627283     16.890      5.945     15.357   -0.093       1 
566244.000    22.5682145699   114.0622118897     16.850      5.264     15.339   -0.022       0 
566245.000    22.5682596339   114.0623603614     16.830      4.782     15.267    0.035       0 
566246.000    22.5682992413   114.0625088698     16.882      4.090     15.311    0.081       0 
566247.000    22.5683328235   114.0626572650     16.931      3.501     15.165    0.010       0 
566248.000    22.5683626396   114.0628037071     16.995      3.186     14.965    0.060       0 
566249.000    22.5683891331   114.0629480782     17.023      2.748     14.791    0.004       0 
566250.000    22.5684107771   114.0630905902     17.083      2.166     14.594    0.095       0 
566251.000    22.5684291656   114.0632308713     17.174      1.948     14.406    0.084       0 
566252.000    22.5684454125   114.0633706855     17.262      1.738     14.425    0.077       2 
566253.000    22.5684607585   114.0635116936     17.332      1.721     14.567    0.071       2 
566254.000    22.5684770518   114.0636541936     17.402      1.834     14.740    0.111       2 
566255.000    22.5684944086   114.0637987088     17.481      1.979     15.012    0.133       2 
566256.000    22.5685124711   114.0639440794     17.603      1.963     14.937    0.150       2 
566257.000    22.5685297114   114.0640897040     17.777      1.866     15.048    0.243       1 
566258.000    22.5685462259   114.0642365353     18.056      1.818     15.156    0.309       1 
566259.000    22.5685623291   114.0643842657     18.411      1.783     15.243    0.363       1 
566260.000    22.5685781918   114.0645327808     18.784      1.758     15.337    0.374       1 
566261.000    22.5685944845   114.0646822017     19.129      1.851     15.434    0.341       1 
566262.000    22.5686119639   114.0648330007     19.383      1.981     15.603    0.200       2 
566263.000    22.5686297543   114.0649860740     19.538      1.996     15.897    0.097       2 
566264.000    22.5686477894   114.0651420592     19.651      2.016     16.236    0.002       0 
566265.000    22.5686661936   114.0653019786     19.520      2.092     16.688   -0.174       0 
566266.000    22.5686858541   114.0654664774     19.347      2.249     17.159   -0.258       0 
566267.000    22.5687062882   114.0656358515     19.101      2.268     17.645   -0.326       0 
566268.000    22.5687255112   114.0658074428     18.684      2.036     17.683   -0.455       0 
566269.000    22.5687436866   114.0659794347     18.275      2.077     17.767   -0.410       0 
566270.000    22.5687629735   114.0661530757     17.872      2.165     17.892   -0.394       0 
566271.000    22.5687829784   114.0663267447     17.441      2.246     17.818   -0.487       2 
566272.000    22.5688035620   114.0664999114     16.986      2.306     17.792   -0.415       2 
566273.000    22.5688237695   114.0666724667     16.577      2.170     17.701   -0.406       2 
566274.000    22.5688418800   114.0668429580     16.139      1.935     17.420   -0.424       2 
566275.000    22.5688600859   114.0670109783     15.772      2.029     17.004   -0.285       2 
566276.000    22.5688788990   114.0671740297     15.562      2.099     16.584   -0.127       2 
