GPSTime         Latitude        Longitude      H-Ell      Vel-N      Vel-E    Vel-U       Q  
(sec)            (Deg)            (Deg)        (m)      (m/s)      (m/s)    (m/s)          
477596.000    22.6794565901   113.7708066705     14.089      7.196     -7.606    0.062       2 
477597.000    22.6795228569   113.7707322111     14.190      7.357     -7.712    0.076       2 
477598.000    22.6795878196   113.7706556600     14.313      7.036     -8.092    0.132       2 
477599.000    22.6796480507   113.7705747215     14.474      6.420     -8.701    0.179       2 
477600.000    22.6797031688   113.7704873225     14.647      5.965     -9.382    0.227       2 
477601.000    22.6797548857   113.7703934280     14.863      5.616    -10.001    0.144       2 
477602.000    22.6798044969   113.7702955009     15.052      5.476    -10.043    0.162       2 
477603.000    22.6798549782   113.7701976218     15.279      5.653    -10.028    0.256       2 
477604.000    22.6799062077   113.7701019885     15.526      5.681     -9.587    0.268       2 
477605.000    22.6799588788   113.7700088022     15.792      5.914     -9.436    0.286       2 
477606.000    22.6800142641   113.7699186078     16.086      6.356     -9.027    0.275       2 
477607.000    22.6800748968   113.7698302641     16.361      6.977     -9.023    0.274       2 
477608.000    22.6801423516   113.7697454443     16.652      7.795     -8.422    0.267       2 
477609.000    22.6802170916   113.7696652541     16.940      8.626     -7.869    0.316       2 
477610.000    22.6802993074   113.7695922325     17.254      9.482     -7.062    0.322       2 
477611.000    22.6803899415   113.7695271020     17.597     10.537     -6.153    0.335       2 
477612.000    22.6804902621   113.7694721750     17.931     11.568     -5.010    0.325       2 
477613.000    22.6805995819   113.7694298876     18.285     12.474     -3.728    0.396       2 
477614.000    22.6807156075   113.7693996031     18.678     13.134     -2.427    0.376       2 
477615.000    22.6808368961   113.7693802411     19.077     13.638     -1.576    0.405       2 
477616.000    22.6809619436   113.7693654891     19.519     13.997     -1.438    0.444       2 
477617.000    22.6810893223   113.7693524120     19.940     14.230     -1.224    0.419       2 
477618.000    22.6812178417   113.7693416011     20.287     14.240     -1.138    0.317       2 
477619.000    22.6813465209   113.7693303569     20.551     14.290     -1.186    0.254       2 
477620.000    22.6814765379   113.7693170653     20.754     14.510     -1.461    0.179       1 
477621.000    22.6816075863   113.7693013334     20.870     14.569     -1.722    0.078       1 
477622.000    22.6817401986   113.7692840384     20.910     14.832     -1.989   -0.006       1 
477623.000    22.6818755053   113.7692635690     20.844     15.202     -2.173   -0.136       1 
477624.000    22.6820133923   113.7692425727     20.752     15.281     -2.273   -0.011       1 
477625.000    22.6821519230   113.7692193615     20.677     15.480     -2.525   -0.077       1 
477626.000    22.6822928711   113.7691935471     20.565     15.779     -2.711   -0.067       1 
477627.000    22.6824362244   113.7691653929     20.471     15.937     -2.988   -0.127       1 
477628.000    22.6825809993   113.7691357615     20.365     16.074     -3.094   -0.101       1 
477629.000    22.6827267526   113.7691048363     20.264     16.232     -3.100   -0.113       1 
477630.000    22.6828738254   113.7690756486     20.167     16.243     -2.862   -0.108       1 
477631.000    22.6830203580   113.7690476233     20.073     16.304     -2.864   -0.117       1 
477632.000    22.6831678324   113.7690195571     19.976     16.368     -3.055   -0.055       1 
477633.000    22.6833162706   113.7689883563     19.859     16.513     -3.208   -0.171       1 
477634.000    22.6834671388   113.7689578935     19.774     16.855     -3.138   -0.109       1 
477635.000    22.6836191015   113.7689270094     19.664     16.877     -3.179   -0.074       1 
477636.000    22.6837721235   113.7688965717     19.582     16.996     -3.048   -0.039       1 
477637.000    22.6839256360   113.7688674089     19.495     17.033     -3.027   -0.064       1 
477638.000    22.6840797560   113.7688383223     19.427     17.105     -2.972   -0.131       1 
477639.000    22.6842349063   113.7688083692     19.329     17.271     -3.240   -0.087       1 
477640.000    22.6843914649   113.7687747546     19.223     17.436     -3.524   -0.077       1 
477641.000    22.6845502169   113.7687403581     19.143     17.725     -3.544   -0.050       1 
477642.000    22.6847113719   113.7687052704     19.079     17.997     -3.725    0.017       1 
477643.000    22.6848751962   113.7686676757     18.983     18.290     -4.086   -0.116       1 
477644.000    22.6850416241   113.7686273329     18.871     18.600     -4.301   -0.124       1 
477645.000    22.6852108510   113.7685852245     18.777     18.920     -4.283   -0.096       1 
477646.000    22.6853832227   113.7685433941     18.681     19.255     -4.353   -0.100       1 
477647.000    22.6855580756   113.7684994461     18.572     19.493     -4.728   -0.109       1 
477648.000    22.6857349228   113.7684518939     18.468     19.729     -4.899   -0.065       1 
477649.000    22.6859140765   113.7684025584     18.362     19.944     -5.262   -0.079       1 
477650.000    22.6860956541   113.7683511032     18.266     20.251     -5.349   -0.106       1 
477651.000    22.6862797365   113.7682989131     18.160     20.465     -5.492   -0.151       1 
477652.000    22.6864657749   113.7682448917     18.047     20.705     -5.608   -0.096       1 
477653.000    22.6866538495   113.7681893186     17.947     20.926     -5.883   -0.078       1 
477654.000    22.6868431381   113.7681293201     17.838     21.006     -6.496   -0.078       1 
477655.000    22.6870331762   113.7680640572     17.724     21.178     -6.796   -0.107       1 
477656.000    22.6872246167   113.7679956073     17.597     21.241     -7.347   -0.171       1 
477657.000    22.6874168828   113.7679223096     17.472     21.351     -7.682   -0.134       1 
477658.000    22.6876109055   113.7678468014     17.347     21.537     -7.872   -0.205       1 
477659.000    22.6878069064   113.7677736047     17.190     21.700     -7.182   -0.341       1 
477660.000    22.6880022686   113.7677033798     16.998     21.523     -7.255   -0.217       2 
477661.000    22.6881957247   113.7676331601     16.828     21.322     -7.244   -0.228       2 
477662.000    22.6883877878   113.7675610244     16.641     21.273     -7.493   -0.168       2 
477663.000    22.6885810799   113.7674887549     16.460     21.507     -7.445   -0.177       2 
477664.000    22.6887756333   113.7674148194     16.292     21.600     -7.709   -0.148       2 
477665.000    22.6889713034   113.7673394281     16.166     21.736     -7.787   -0.153       2 
477666.000    22.6891679931   113.7672629318     16.041     21.808     -8.034   -0.128       2 
477667.000    22.6893651223   113.7671835857     15.923     21.831     -8.415   -0.128       1 
477668.000    22.6895620960   113.7671008550     15.802     21.737     -8.610   -0.129       1 
477669.000    22.6897574051   113.7670179139     15.672     21.519     -8.406   -0.189       1 
477670.000    22.6899524545   113.7669412722     15.538     21.568     -7.611   -0.166       1 
477671.000    22.6901462194   113.7668658984     15.388     21.361     -7.957   -0.113       1 
477672.000    22.6903379866   113.7667866180     15.257     21.114     -8.206   -0.154       1 
477673.000    22.6905284611   113.7667071265     15.125     21.143     -8.001   -0.128       1 
477674.000    22.6907203818   113.7666315909     15.006     21.273     -7.687   -0.123       1 
477675.000    22.6909124791   113.7665557430     14.921     21.305     -7.820   -0.084       1 
477676.000    22.6911057186   113.7664799930     14.879     21.484     -7.714    0.017       1 
477677.000    22.6913004744   113.7664060852     14.901     21.627     -7.530    0.063       1 
477678.000    22.6914961985   113.7663326701     15.043     21.705     -7.588    0.205       1 
477679.000    22.6916920544   113.7662575693     15.314     21.723     -7.744    0.358       2 
477680.000    22.6918887647   113.7661827971     15.707     21.878     -7.564    0.428       2 
477681.000    22.6920862229   113.7661075476     16.179     21.856     -7.957    0.470       1 
477682.000    22.6922840276   113.7660292729     16.708     21.992     -8.092    0.518       1 
477683.000    22.6924839632   113.7659516472     17.250     22.293     -7.744    0.494       1 
477684.000    22.6926871180   113.7658777778     17.763     22.650     -7.536    0.488       1 
477685.000    22.6928922579   113.7658041211     18.206     22.822     -7.598    0.368       1 
477686.000    22.6930991914   113.7657304770     18.558     22.990     -7.523    0.378       1 
477687.000    22.6933081755   113.7656580093     18.850     23.236     -7.396    0.268       1 
477688.000    22.6935190784   113.7655869151     19.057     23.426     -7.329    0.142       1 
477689.000    22.6937312642   113.7655159075     19.236     23.535     -7.241    0.119       1 
477690.000    22.6939427753   113.7654465157     19.336     23.294     -7.012    0.075       1 
477691.000    22.6941519765   113.7653798902     19.410     23.017     -6.810    0.098       1 
477692.000    22.6943582502   113.7653142871     19.426     22.615     -6.786   -0.020       1 
477693.000    22.6945616559   113.7652505904     19.435     22.412     -6.317   -0.028       1 
477694.000    22.6947626633   113.7651902809     19.432     22.109     -6.022    0.006       1 
477695.000    22.6949612319   113.7651316659     19.419     21.891     -6.067   -0.005       1 
477696.000    22.6951582394   113.7650728681     19.415     21.746     -6.062    0.004       1 
477697.000    22.6953543448   113.7650143116     19.423     21.700     -5.934    0.014       1 
477698.000    22.6955499631   113.7649566558     19.421     21.623     -5.847   -0.025       2 
477699.000    22.6957456267   113.7649006823     19.451     21.678     -5.650    0.046       2 
477700.000    22.6959414743   113.7648461637     19.463     21.682     -5.658    0.042       2 
477701.000    22.6961374520   113.7647918877     19.486     21.714     -5.473    0.030       2 
477702.000    22.6963338017   113.7647391566     19.516     21.760     -5.476   -0.062       2 
477703.000    22.6965302853   113.7646856059     19.545     21.786     -5.457    0.078       2 
477704.000    22.6967277631   113.7646332648     19.591     21.939     -5.218    0.046       2 
477705.000    22.6969261799   113.7645826842     19.631     22.034     -5.141    0.057       2 
477706.000    22.6971255969   113.7645329070     19.680     22.099     -5.177    0.042       2 
477707.000    22.6973256928   113.7644823756     19.745     22.156     -5.350    0.016       2 
477708.000    22.6975263075   113.7644307170     19.794     22.241     -5.260    0.026       2 
477709.000    22.6977281736   113.7643817710     19.853     22.430     -4.917    0.090       2 
477710.000    22.6979310846   113.7643344426     19.897     22.516     -4.811    0.041       2 
477711.000    22.6981347871   113.7642878489     19.950     22.591     -4.740    0.080       2 
477712.000    22.6983395464   113.7642417612     20.023     22.735     -4.843    0.054       2 
477713.000    22.6985449241   113.7641941503     20.069     22.763     -4.913    0.019       2 
477714.000    22.6987510628   113.7641467245     20.149     22.856     -4.887    0.061       2 
477715.000    22.6989568402   113.7641006105     20.234     22.812     -4.507    0.041       2 
477716.000    22.6991630605   113.7640568887     20.290     22.896     -4.459    0.080       2 
477717.000    22.6993701393   113.7640130941     20.364     22.994     -4.501    0.078       2 
477718.000    22.6995782010   113.7639695560     20.441     23.134     -4.298    0.047       2 
477719.000    22.6997874051   113.7639287597     20.498     23.199     -4.177    0.098       2 
477720.000    22.6999958597   113.7638886233     20.572     22.941     -4.104    0.047       2 
477721.000    22.7002014359   113.7638493343     20.648     22.533     -4.059    0.095       2 
477722.000    22.7004031730   113.7638107372     20.721     22.098     -3.874    0.121       2 
477723.000    22.7006021587   113.7637741457     20.791     21.962     -3.743    0.072       2 
477724.000    22.7007997913   113.7637368796     20.872     21.851     -3.836    0.074       2 
477725.000    22.7009956422   113.7636987662     20.946     21.581     -3.948    0.054       2 
477726.000    22.7011895742   113.7636600296     21.026     21.434     -4.046    0.101       2 
477727.000    22.7013825243   113.7636210152     21.098     21.326     -3.985    0.098       2 
477728.000    22.7015750097   113.7635823809     21.184     21.305     -3.995    0.089       2 
477729.000    22.7017670494   113.7635441338     21.261     21.215     -3.925    0.072       2 
477730.000    22.7019585144   113.7635064015     21.352     21.171     -3.819    0.081       2 
477731.000    22.7021494517   113.7634694080     21.435     21.121     -3.826    0.101       2 
477732.000    22.7023402791   113.7634326457     21.525     21.160     -3.707    0.084       2 
477733.000    22.7025313436   113.7633965247     21.601     21.148     -3.793    0.072       2 
477734.000    22.7027225143   113.7633594693     21.673     21.176     -3.892    0.087       2 
477735.000    22.7029142851   113.7633220190     21.762     21.281     -3.766    0.083       2 
477736.000    22.7031064318   113.7632843968     21.857     21.331     -3.865    0.121       2 
477737.000    22.7032992189   113.7632467424     21.935     21.366     -3.827    0.082       2 
477738.000    22.7034925551   113.7632088033     22.037     21.421     -3.943    0.106       2 
477739.000    22.7036866228   113.7631709349     22.146     21.543     -3.898    0.111       2 
477740.000    22.7038813088   113.7631323929     22.249     21.605     -3.973    0.048       2 
477741.000    22.7040766607   113.7630938165     22.349     21.653     -3.942    0.153       2 
477742.000    22.7042730947   113.7630559282     22.476     21.796     -3.896    0.120       2 
477743.000    22.7044704081   113.7630180457     22.550     21.883     -3.916    0.161       2 
477744.000    22.7046686042   113.7629800053     22.673     21.968     -3.924   -0.037       2 
477745.000    22.7048676016   113.7629420411     22.786     22.068     -3.955    0.112       2 
477746.000    22.7050674135   113.7629039341     22.907     22.141     -3.936    0.126       2 
477747.000    22.7052681193   113.7628659107     23.028     22.269     -3.897    0.109       2 
477748.000    22.7054696191   113.7628276863     23.151     22.339     -3.983    0.137       2 
477749.000    22.7056719835   113.7627887257     23.273     22.464     -4.073    0.184       2 
477750.000    22.7058750775   113.7627483599     23.405     22.549     -4.179    0.135       2 
477751.000    22.7060790863   113.7627083688     23.544     22.681     -3.953    0.114       2 
477752.000    22.7062840210   113.7626688008     23.684     22.749     -4.084    0.152       2 
477753.000    22.7064896552   113.7626287646     23.825     22.736     -4.128    0.126       2 
477754.000    22.7066946331   113.7625887359     23.973     22.670     -4.100    0.134       2 
477755.000    22.7068996338   113.7625484199     24.129     22.722     -4.185    0.159       2 
477756.000    22.7071051523   113.7625077107     24.293     22.806     -4.149    0.105       2 
477757.000    22.7073114323   113.7624676380     24.446     22.918     -4.000    0.216       2 
477758.000    22.7075185611   113.7624282373     24.605     22.955     -4.075    0.151       2 
477759.000    22.7077265451   113.7623888460     24.765     23.062     -4.085    0.118       2 
477760.000    22.7079353762   113.7623493966     24.907     23.185     -4.087    0.224       2 
477761.000    22.7081450985   113.7623095284     25.073     23.271     -4.123    0.201       2 
477762.000    22.7083556580   113.7622691963     25.229     23.379     -4.149    0.188       2 
477763.000    22.7085669001   113.7622280011     25.386     23.476     -4.234    0.149       2 
477764.000    22.7087789015   113.7621865642     25.558     23.533     -4.212    0.219       2 
477765.000    22.7089917317   113.7621457446     25.723     23.638     -4.182    0.145       2 
477766.000    22.7092055637   113.7621048570     25.882     23.748     -4.157    0.165       2 
477767.000    22.7094203400   113.7620634885     26.037     23.818     -4.305    0.180       2 
477768.000    22.7096356927   113.7620213875     26.181     23.809     -4.314    0.247       2 
477769.000    22.7098504574   113.7619797065     26.367     23.847     -4.234    0.142       2 
477770.000    22.7100660740   113.7619384050     26.520     23.921     -4.268    0.127       2 
477771.000    22.7102826338   113.7618968004     26.672     24.065     -4.264    0.195       2 
477772.000    22.7105000988   113.7618550143     26.821     24.132     -4.337    0.155       0 
477773.000    22.7107184371   113.7618133457     26.973     24.225     -4.272    0.200       0 
477774.000    22.7109365037   113.7617714214     27.112     24.066     -4.326    0.150       0 
477775.000    22.7111535834   113.7617288542     27.258     23.942     -4.396    0.155       0 
477776.000    22.7113691415   113.7616861206     27.394     23.806     -4.427    0.137       1 
477777.000    22.7115845122   113.7616442182     27.516     23.878     -4.235    0.151       1 
477778.000    22.7118004138   113.7616040212     27.629     23.979     -4.114    0.169       1 
477779.000    22.7120167473   113.7615641814     27.723     23.953     -4.109    0.106       1 
477780.000    22.7122329819   113.7615224983     27.842     23.892     -4.467    0.081       1 
477781.000    22.7124479028   113.7614797377     27.957     23.726     -4.330    0.083       1 
477782.000    22.7126622200   113.7614376824     28.054     23.700     -4.324    0.105       1 
477783.000    22.7128757335   113.7613962785     28.155     23.669     -4.156    0.098       1 
477784.000    22.7130892628   113.7613554558     28.256     23.631     -4.201    0.032       1 
477785.000    22.7133031727   113.7613153294     28.344     23.734     -4.124    0.081       1 
477786.000    22.7135163780   113.7612748770     28.443     23.567     -4.210    0.065       1 
477787.000    22.7137292464   113.7612329133     28.555     23.562     -4.369    0.088       0 
477788.000    22.7139425717   113.7611901063     28.669     23.625     -4.376    0.084       2 
477789.000    22.7141565409   113.7611475477     28.774     23.753     -4.421    0.101       2 
477790.000    22.7143712611   113.7611049456     28.881     23.801     -4.460    0.108       2 
477791.000    22.7145865301   113.7610613877     28.994     23.923     -4.380    0.126       2 
477792.000    22.7148027663   113.7610193552     29.103     24.039     -4.039    0.118       2 
477793.000    22.7150202868   113.7609807861     29.202     24.137     -3.927    0.118       2 
477794.000    22.7152386679   113.7609426133     29.282     24.258     -3.827    0.133       2 
477795.000    22.7154566663   113.7609059241     29.389     24.129     -3.697    0.062       2 
477796.000    22.7156746807   113.7608700961     29.472     24.213     -3.671    0.142       2 
477797.000    22.7158939208   113.7608337794     29.551     24.307     -3.730   -0.059       2 
477798.000    22.7161142171   113.7607975776     29.634     24.497     -3.673    0.134       2 
477799.000    22.7163356810   113.7607607630     29.702     24.624     -3.838    0.071       2 
477800.000    22.7165587338   113.7607248939     29.770     24.813     -3.538    0.035       2 
477801.000    22.7167832468   113.7606904604     29.815     24.990     -3.480    0.052       2 
