   GPSTime         Latitude        Longitude      H-Ell      Vel-N      Vel-E    Vel-U   
     (sec)            (Deg)            (Deg)        (m)      (m/s)      (m/s)    (m/s)  
 486548.00    30.4871511621   114.5638096208     27.027     -2.772     -8.028   -0.121 
 486549.00    30.4870764787   114.5637792185     26.895     -3.043     -8.578   -0.117 
 486550.00    30.4869990792   114.5637469957     26.746     -3.133     -8.611   -0.151 
 486551.00    30.4869205666   114.5637139470     26.600     -3.233     -8.813   -0.126 
 486552.00    30.4868401139   114.5636801704     26.447     -3.217     -9.038   -0.123 
 486553.00    30.4867579886   114.5636471297     26.311     -3.131     -9.184   -0.125 
 486554.00    30.4866742366   114.5636153043     26.166     -2.964     -9.390   -0.158 
 486555.00    30.4865876605   114.5635857745     26.000     -2.721     -9.714   -0.164 
 486556.00    30.4864987013   114.5635601734     25.839     -2.226     -9.902   -0.158 
 486557.00    30.4864078453   114.5635402199     25.679     -1.687    -10.166   -0.154 
 486558.00    30.4863142555   114.5635255779     25.505     -1.202    -10.478   -0.154 
 486559.00    30.4862182275   114.5635154686     25.329     -0.849    -10.741   -0.196 
 486560.00    30.4861202304   114.5635077483     25.156     -0.625    -10.963   -0.171 
 486561.00    30.4860203605   114.5635032240     24.997     -0.263    -11.069   -0.167 
 486562.00    30.4859205628   114.5635027409     24.826      0.153    -11.001   -0.196 
 486563.00    30.4858209775   114.5635066558     24.640      0.570    -11.045   -0.203 
 486564.00    30.4857199952   114.5635147092     24.456      0.909    -11.281   -0.153 
 486565.00    30.4856174133   114.5635259162     24.304      1.197    -11.407   -0.158 
 486566.00    30.4855132494   114.5635396247     24.123      1.365    -11.688   -0.186 
 486567.00    30.4854068652   114.5635547644     23.961      1.501    -11.876   -0.109 
 486568.00    30.4852993293   114.5635702327     23.898      1.466    -11.994   -0.093 
 486569.00    30.4851910463   114.5635842385     23.781      1.254    -12.044   -0.121 
 486570.00    30.4850833826   114.5635961318     23.695      1.095    -11.774   -0.108 
 486571.00    30.4849774630   114.5636083962     23.623      1.175    -11.686   -0.040 
 486572.00    30.4848724174   114.5636219617     23.573      1.359    -11.640   -0.027 
 486573.00    30.4847672251   114.5636365606     23.561      1.421    -11.717   -0.004 
 486574.00    30.4846608851   114.5636513775     23.522      1.402    -11.878   -0.042 
 486575.00    30.4845537920   114.5636653145     23.469      1.243    -11.854   -0.036 
 486576.00    30.4844469889   114.5636774276     23.426      1.108    -11.905   -0.024 
 486577.00    30.4843393088   114.5636885366     23.414      1.048    -11.969   -0.017 
 486578.00    30.4842314588   114.5636989501     23.395      0.986    -11.959   -0.030 
 486579.00    30.4841237069   114.5637101733     23.343      1.144    -11.987   -0.021 
 486580.00    30.4840160093   114.5637228287     23.331      1.249    -11.946   -0.009 
 486581.00    30.4839081913   114.5637368624     23.304      1.425    -12.002    0.011 
 486582.00    30.4838005078   114.5637525760     23.300      1.454    -11.982    0.004 
 486583.00    30.4836946457   114.5637670692     23.318      1.308    -11.553    0.036 
 486584.00    30.4835924549   114.5637796791     23.332      1.114    -11.034   -0.007 
 486585.00    30.4834951403   114.5637906234     23.357      1.010    -10.457    0.014 
 486586.00    30.4834033369   114.5638008315     23.359      0.941     -9.820   -0.004 
 486587.00    30.4833209212   114.5638100106     23.375      0.788     -8.412    0.013 
 486588.00    30.4832490223   114.5638182368     23.393      0.771     -7.704   -0.022 
 486589.00    30.4831822899   114.5638259621     23.395      0.777     -7.071    0.017 
 486590.00    30.4831214001   114.5638348743     23.413      0.857     -6.224    0.030 
 486591.00    30.4830727525   114.5638434181     23.426      0.762     -4.753   -0.003 
 486592.00    30.4830328790   114.5638516759     23.425      0.810     -4.188    0.000 
 486593.00    30.4829919140   114.5638641041     23.417      1.496     -4.654    0.049 
 486594.00    30.4829513692   114.5638860361     23.492      2.503     -4.083    0.100 
 486595.00    30.4829156047   114.5639224781     23.568      4.118     -3.525    0.058 
 486596.00    30.4828859464   114.5639756188     23.622      5.598     -2.951    0.051 
 486597.00    30.4828615218   114.5640410036     23.676      6.708     -2.261    0.071 
 486598.00    30.4828450968   114.5641175161     23.771      7.677     -1.495    0.125 
 486599.00    30.4828320943   114.5642018423     23.872      8.433     -1.440    0.058 
 486600.00    30.4828187927   114.5642929552     23.968      9.020     -1.543    0.127 
 486601.00    30.4828042459   114.5643891484     24.105      9.411     -1.703    0.148 
 486602.00    30.4827875881   114.5644853515     24.235      9.021     -2.035    0.109 
 486603.00    30.4827681131   114.5645772564     24.347      8.707     -2.293    0.107 
 486604.00    30.4827473669   114.5646669008     24.454      8.542     -2.280    0.144 
 486605.00    30.4827279319   114.5647574690     24.597      8.867     -2.095    0.129 
 486606.00    30.4827082891   114.5648491228     24.681      8.712     -2.156    0.046 
 486607.00    30.4826895202   114.5649369536     24.752      8.176     -2.084    0.088 
 486608.00    30.4826694883   114.5650197973     24.873      7.897     -2.431    0.139 
 486609.00    30.4826464818   114.5651014839     24.986      7.896     -2.583    0.115 
 486610.00    30.4826245168   114.5651849524     25.075      8.071     -2.140    0.108 
 486611.00    30.4826069550   114.5652708391     25.167      8.319     -1.791    0.098 
 486612.00    30.4825917920   114.5653583908     25.261      8.441     -1.527    0.091 
 486613.00    30.4825788055   114.5654447447     25.367      8.003     -1.435    0.130 
 486614.00    30.4825655928   114.5655249440     25.497      7.367     -1.559    0.127 
 486615.00    30.4825513499   114.5655976383     25.618      6.586     -1.640    0.103 
 486616.00    30.4825356186   114.5656619630     25.708      5.794     -1.909    0.086 
 486617.00    30.4825168641   114.5657165487     25.795      4.797     -2.393    0.086 
 486618.00    30.4824920229   114.5657610602     25.875      4.096     -3.189    0.069 
 486619.00    30.4824600012   114.5657990572     25.943      3.449     -4.052    0.046 
 486620.00    30.4824201898   114.5658289362     25.957      2.638     -5.045    0.001 
 486621.00    30.4823711189   114.5658507119     25.971      1.933     -6.070    0.023 
 486622.00    30.4823125204   114.5658682817     26.000      1.629     -7.051    0.009 
 486623.00    30.4822444269   114.5658827815     25.999      1.213     -8.122   -0.002 
 486624.00    30.4821670486   114.5658929686     25.988      0.974     -9.060   -0.010 
 486625.00    30.4820814792   114.5659037238     25.961      1.123     -9.885    0.025 
 486626.00    30.4819886001   114.5659163501     25.947      1.339    -10.653   -0.104 
 486627.00    30.4818889846   114.5659316853     25.899      1.624    -11.391    0.000 
 486628.00    30.4817832463   114.5659501501     25.863      1.874    -12.048   -0.003 
 486629.00    30.4816716717   114.5659700856     25.853      1.892    -12.692    0.001 
 486630.00    30.4815542410   114.5659898192     25.827      1.871    -13.361   -0.037 
 486631.00    30.4814311526   114.5660086241     25.817      1.739    -13.952   -0.004 
 486632.00    30.4813026509   114.5660263999     25.852      1.743    -14.517    0.064 
 486633.00    30.4811695657   114.5660450042     25.912      1.811    -15.004    0.054 
 486634.00    30.4810321808   114.5660639206     25.999      1.807    -15.498    0.128 
 486635.00    30.4808905982   114.5660829943     26.078      1.850    -15.956    0.063 
 486636.00    30.4807470902   114.5661019322     26.139      1.784    -15.771    0.034 
 486637.00    30.4806065316   114.5661201037     26.220      1.735    -15.318    0.039 
 486638.00    30.4804697750   114.5661383642     26.222      1.720    -14.962    0.040 
 486639.00    30.4803361191   114.5661561521     26.246      1.708    -14.714   -0.033 
 486640.00    30.4802040356   114.5661737212     26.240      1.703    -14.531   -0.065 
 486641.00    30.4800733852   114.5661913132     26.202      1.677    -14.421   -0.036 
 486642.00    30.4799439631   114.5662089766     26.155      1.683    -14.288   -0.068 
 486643.00    30.4798156178   114.5662271766     26.135      1.800    -14.188   -0.037 
 486644.00    30.4796881190   114.5662461143     26.086      1.779    -14.077   -0.016 
 486645.00    30.4795616065   114.5662643343     26.058      1.720    -13.910   -0.043 
 486646.00    30.4794379967   114.5662823639     26.079      1.761    -13.532   -0.013 
 486647.00    30.4793178656   114.5663005661     26.083      1.728    -13.102    0.006 
 486648.00    30.4792022244   114.5663182172     26.070      1.607    -12.437   -0.019 
 486649.00    30.4790952861   114.5663337034     26.056      1.373    -11.439   -0.035 
 486650.00    30.4789964533   114.5663472605     26.094      1.228    -10.290    0.066 
 486651.00    30.4789105409   114.5663593969     26.078      1.094     -8.724   -0.029 
 486652.00    30.4788381834   114.5663702829     26.082      0.986     -7.443   -0.008 
 486653.00    30.4787764946   114.5663802041     26.069      0.893     -6.064   -0.031 
 486654.00    30.4787294212   114.5663893262     26.047      0.789     -4.312    0.008 
 486655.00    30.4786948399   114.5663974880     26.046      0.749     -3.391    0.021 
 486656.00    30.4786682681   114.5664052284     26.058      0.694     -2.576    0.014 
 486657.00    30.4786448667   114.5664136577     26.074      0.854     -2.535    0.008 
 486658.00    30.4786236148   114.5664235072     26.099      0.954     -2.100    0.008 
 486659.00    30.4786055569   114.5664351558     26.118      1.064     -1.747    0.020 
 486660.00    30.4785901110   114.5664478787     26.118      1.282     -1.685    0.018 
 486661.00    30.4785738467   114.5664621048     26.123      1.380     -1.988   -0.034 
 486662.00    30.4785531831   114.5664769899     26.123      1.386     -2.403   -0.023 
 486663.00    30.4785308356   114.5664896790     26.120      1.213     -2.696    0.001 
 486664.00    30.4785054306   114.5665005788     26.131      1.064     -3.078   -0.009 
 486665.00    30.4784760073   114.5665112152     26.124      1.047     -3.333   -0.032 
 486666.00    30.4784511361   114.5665209880     26.094      0.693     -1.932   -0.020 
 486667.00    30.4784342626   114.5665289541     26.069      0.815     -1.873   -0.013 
 486668.00    30.4784167839   114.5665391526     26.034      1.031     -1.863   -0.043 
 486669.00    30.4783992527   114.5665526132     25.995      1.449     -1.991   -0.043 
 486670.00    30.4783802031   114.5665721959     25.944      2.142     -2.100   -0.057 
 486671.00    30.4783597393   114.5666030295     25.865      3.524     -2.213   -0.088 
 486672.00    30.4783404986   114.5666484872     25.766      4.859     -1.850   -0.098 
 486673.00    30.4783262286   114.5667077666     25.652      6.177     -1.386   -0.106 
 486674.00    30.4783159769   114.5667783167     25.522      7.184     -0.817   -0.154 
 486675.00    30.4783109285   114.5668578318     25.360      7.950     -0.324   -0.169 
 486676.00    30.4783099703   114.5669443648     25.207      8.625      0.046   -0.158 
 486677.00    30.4783110485   114.5670376870     25.059      9.250      0.155   -0.140 
 486678.00    30.4783123386   114.5671374814     24.895      9.876      0.123   -0.143 
 486679.00    30.4783130682   114.5672436742     24.720     10.536      0.033   -0.221 
 486680.00    30.4783123523   114.5673564195     24.512     11.024     -0.152   -0.202 
 486681.00    30.4783106257   114.5674703383     24.334     10.853     -0.243   -0.195 
 486682.00    30.4783086290   114.5675818237     24.138     10.537     -0.169   -0.202 
 486683.00    30.4783076896   114.5676893458     23.963     10.167      0.013   -0.164 
 486684.00    30.4783082653   114.5677941375     23.794      9.940      0.110   -0.198 
 486685.00    30.4783095447   114.5678964004     23.626      9.701      0.167   -0.172 
 486686.00    30.4783123415   114.5679965718     23.444      9.543      0.455   -0.151 
 486687.00    30.4783175772   114.5680961327     23.274      9.540      0.706   -0.173 
 486688.00    30.4783248574   114.5681970653     23.119      9.846      0.851   -0.154 
 486689.00    30.4783317622   114.5683025004     22.954     10.418      0.612   -0.175 
 486690.00    30.4783361752   114.5684135594     22.784     10.970      0.348   -0.134 
 486691.00    30.4783379729   114.5685309641     22.598     11.579      0.110   -0.234 
 486692.00    30.4783380260   114.5686517839     22.399     11.672     -0.066   -0.209 
 486693.00    30.4783373817   114.5687755664     22.208     12.111     -0.072   -0.215 
 486694.00    30.4783364267   114.5689033151     21.985     12.530     -0.153   -0.239 
 486695.00    30.4783352323   114.5690357293     21.753     12.772     -0.124   -0.160 
 486696.00    30.4783346146   114.5691693030     21.540     12.866     -0.037   -0.215 
 486697.00    30.4783346607   114.5693051549     21.246     13.204     -0.001   -0.444 
 486698.00    30.4783350253   114.5694441891     21.059     13.386      0.131   -0.274 
 486699.00    30.4783356072   114.5695826460     20.822     13.272      0.050   -0.227 
 486700.00    30.4783352511   114.5697211828     20.597     13.385     -0.108   -0.241 
 486701.00    30.4783337323   114.5698613100     20.370     13.589     -0.213   -0.228 
 486702.00    30.4783311749   114.5700038586     20.134     13.860     -0.286   -0.258 
 486703.00    30.4783291178   114.5701501707     19.881     14.260     -0.150   -0.251 
 486704.00    30.4783287921   114.5703017401     19.618     14.768     -0.006   -0.254 
 486705.00    30.4783294464   114.5704582851     19.361     15.205      0.145   -0.264 
 486706.00    30.4783304256   114.5706174742     19.093     15.466      0.089   -0.254 
 486707.00    30.4783310195   114.5707797994     18.846     15.718      0.040   -0.268 
 486708.00    30.4783308670   114.5709435221     18.619     15.793     -0.035   -0.203 
 486709.00    30.4783301633   114.5711087526     18.452     15.976     -0.135   -0.123 
 486710.00    30.4783289877   114.5712760815     18.355     16.150     -0.165   -0.078 
 486711.00    30.4783275780   114.5714449830     18.279     16.314     -0.118   -0.066 
 486712.00    30.4783268899   114.5716155168     18.207     16.472     -0.035   -0.089 
 486713.00    30.4783269536   114.5717878746     18.147     16.644      0.024   -0.041 
 486714.00    30.4783270812   114.5719618504     18.077     16.771      0.049   -0.079 
 486715.00    30.4783273578   114.5721370186     18.000     16.902      0.040   -0.089 
 486716.00    30.4783278550   114.5723137113     17.887     16.966      0.013   -0.080 
 486717.00    30.4783270339   114.5724902175     17.797     17.012     -0.155   -0.096 
 486718.00    30.4783254280   114.5726686020     17.703     17.209     -0.156   -0.100 
 486719.00    30.4783241674   114.5728471663     17.640     17.028     -0.105   -0.082 
 486720.00    30.4783232258   114.5730237518     17.555     16.865     -0.073   -0.098 
 486721.00    30.4783230908   114.5731976423     17.455     16.510      0.084    0.005 
 486722.00    30.4783234620   114.5733683719     17.395     16.264      0.069   -0.067 
 486723.00    30.4783243524   114.5735369594     17.313     16.105      0.130   -0.099 
 486724.00    30.4783255670   114.5737038420     17.244     15.989      0.026   -0.094 
 486725.00    30.4783253232   114.5738690803     17.193     15.824     -0.132   -0.010 
 486726.00    30.4783230542   114.5740333268     17.130     15.747     -0.288   -0.033 
 486727.00    30.4783199007   114.5741973810     17.028     15.745     -0.343   -0.121 
 486728.00    30.4783169797   114.5743614896     16.913     15.770     -0.290   -0.031 
 486729.00    30.4783144867   114.5745258016     16.904     15.727     -0.198    0.011 
 486730.00    30.4783127802   114.5746903522     16.823     15.812     -0.148   -0.060 
 486731.00    30.4783120275   114.5748554254     16.743     15.843     -0.044   -0.030 
 486732.00    30.4783114601   114.5750211754     16.673     15.931     -0.072   -0.034 
 486733.00    30.4783104066   114.5751875950     16.632     16.030     -0.168   -0.032 
 486734.00    30.4783091347   114.5753547585     16.668     16.075     -0.112    0.068 
 486735.00    30.4783079688   114.5755226301     16.734     16.145     -0.102    0.108 
 486736.00    30.4783071109   114.5756910788     16.830     16.185     -0.077    0.128 
 486737.00    30.4783070447   114.5758604148     16.966     16.301      0.030    0.165 
 486738.00    30.4783076031   114.5760313043     17.061     16.537      0.035    0.060 
 486739.00    30.4783080685   114.5762047186     17.147     16.769      0.026    0.107 
 486740.00    30.4783085953   114.5763809485     17.259     17.049      0.062    0.081 
 486741.00    30.4783086389   114.5765599019     17.354     17.330     -0.087    0.096 
 486742.00    30.4783070296   114.5767416428     17.470     17.611     -0.243    0.094 
 486743.00    30.4783046567   114.5769263515     17.563     17.858     -0.278    0.118 
 486744.00    30.4783024089   114.5771135893     17.668     17.985     -0.255    0.131 
 486745.00    30.4783002843   114.5773004061     17.776     18.004     -0.231    0.095 
 486746.00    30.4782982954   114.5774884383     17.862     18.057     -0.184    0.154 
 486747.00    30.4782967436   114.5776765024     17.952     18.126     -0.070   -0.096 
 486748.00    30.4782953787   114.5778629352     18.060     17.878     -0.171    0.141 
 486749.00    30.4782942888   114.5780492824     18.166     17.903      0.012    0.008 
 486750.00    30.4782941278   114.5782357962     18.285     17.931      0.018    0.143 
 486751.00    30.4782943861   114.5784211821     18.418     17.605      0.026    0.144 
 486752.00    30.4782944647   114.5786021867     18.517     17.161     -0.009    0.088 
 486753.00    30.4782938464   114.5787784946     18.620     16.690     -0.104    0.149 
 486754.00    30.4782923636   114.5789502416     18.741     16.266     -0.155    0.142 
 486755.00    30.4782904927   114.5791177411     18.824     15.882     -0.138    0.102 
 486756.00    30.4782904134   114.5792820169     18.930     15.585      0.013    0.105 
 486757.00    30.4782900146   114.5794423389     19.030     15.199     -0.023    0.064 
 486758.00    30.4782903114   114.5795959401     19.102     14.377      0.008    0.094 
 486759.00    30.4782908291   114.5797401193     19.205     13.159      0.038    0.074 
 486760.00    30.4782905109   114.5798675513     19.271     11.264     -0.059    0.092 
 486761.00    30.4782905984   114.5799707588     19.323      8.338      0.033    0.046 
 486762.00    30.4782913326   114.5800390129     19.369      4.684      0.083    0.018 
 486763.00    30.4782918378   114.5800696256     19.381      1.774      0.028    0.016 
 486764.00    30.4782920044   114.5800792886     19.387      0.102     -0.013    0.002 
 486765.00    30.4782920008   114.5800790493     19.389      0.010      0.030   -0.008 
 486766.00    30.4782920004   114.5800790432     19.389     -0.002     -0.017    0.001 
 486767.00    30.4782920036   114.5800790396     19.389     -0.010     -0.008    0.003 
 486768.00    30.4782920062   114.5800790389     19.387      0.000      0.026   -0.008 
 486769.00    30.4782920121   114.5800790361     19.386     -0.001     -0.013    0.006 
