   GPSTime         Latitude        Longitude      H-Ell      Vel-N      Vel-E    Vel-U   
     (sec)            (Deg)            (Deg)        (m)      (m/s)      (m/s)    (m/s)  
 483829.00    30.4888585693   114.5587819627     27.671     10.270     -1.205    0.144 
 483830.00    30.4888458078   114.5588920201     27.795     10.888     -1.626    0.137 
 483831.00    30.4888301832   114.5590086884     27.951     11.538     -1.850    0.145 
 483832.00    30.4888129705   114.5591325833     28.089     12.258     -1.927    0.132 
 483833.00    30.4887949909   114.5592635326     28.234     12.899     -2.049    0.132 
 483834.00    30.4887759445   114.5594008342     28.389     13.480     -2.189    0.174 
 483835.00    30.4887558977   114.5595441413     28.529     13.919     -2.247    0.139 
 483836.00    30.4887351879   114.5596879485     28.636     13.620     -2.302    0.084 
 483837.00    30.4887145445   114.5598291188     28.705     13.579     -2.270    0.059 
 483838.00    30.4886945109   114.5599721424     28.770     13.953     -2.247    0.016 
 483839.00    30.4886736222   114.5601199774     28.813     14.442     -2.324    0.065 
 483840.00    30.4886524838   114.5602734955     28.856     14.966     -2.333    0.034 
 483841.00    30.4886311415   114.5604293600     28.882     14.854     -2.390   -0.010 
 483842.00    30.4886094542   114.5605822592     28.930     14.532     -2.405    0.034 
 483843.00    30.4885873427   114.5607328368     28.984     14.468     -2.525    0.043 
 483844.00    30.4885649922   114.5608837043     29.018     14.430     -2.455    0.028 
 483845.00    30.4885431450   114.5610328882     29.065     14.202     -2.376    0.042 
 483846.00    30.4885217401   114.5611800345     29.113     14.156     -2.347    0.035 
 483847.00    30.4885000854   114.5613282852     29.153     14.320     -2.416    0.053 
 483848.00    30.4884784386   114.5614788342     29.192     14.574     -2.396    0.063 
 483849.00    30.4884571057   114.5616317602     29.244     14.785     -2.380    0.046 
 483850.00    30.4884356392   114.5617871674     29.295     15.068     -2.448    0.043 
 483851.00    30.4884135479   114.5619457256     29.339     15.379     -2.458    0.042 
 483852.00    30.4883913039   114.5621070191     29.400     15.578     -2.466    0.056 
 483853.00    30.4883689602   114.5622697743     29.435     15.567     -2.490    0.029 
 483854.00    30.4883463683   114.5624309418     29.484     15.440     -2.571    0.024 
 483855.00    30.4883229170   114.5625905016     29.513     15.135     -2.622    0.028 
 483856.00    30.4882999564   114.5627461266     29.510     14.759     -2.500   -0.001 
 483857.00    30.4882777434   114.5628976911     29.494     14.345     -2.451   -0.011 
 483858.00    30.4882562177   114.5630428992     29.442     13.411     -2.317   -0.092 
 483859.00    30.4882356248   114.5631804371     29.393     12.991     -2.155   -0.029 
 483860.00    30.4882175427   114.5633134836     29.358     12.480     -1.787   -0.027 
 483861.00    30.4882040166   114.5634345199     29.329     10.927     -1.317   -0.061 
 483862.00    30.4881929595   114.5635460145     29.308     10.489     -1.256   -0.014 
 483863.00    30.4881805212   114.5636526746     29.286     10.025     -1.479   -0.033 
 483864.00    30.4881667546   114.5637544849     29.267      9.548     -1.559   -0.022 
 483865.00    30.4881527058   114.5638516483     29.246      9.134     -1.523   -0.026 
 483866.00    30.4881395550   114.5639441319     29.258      8.661     -1.352   -0.008 
 483867.00    30.4881296368   114.5640318550     29.278      8.011     -0.696    0.072 
 483868.00    30.4881273398   114.5641082391     29.394      6.507      0.264    0.173 
 483869.00    30.4881350786   114.5641709124     29.554      5.243      1.435    0.138 
 483870.00    30.4881518132   114.5642197843     29.709      3.739      2.199    0.164 
 483871.00    30.4881736878   114.5642537790     29.851      2.877      2.712    0.128 
 483872.00    30.4882030589   114.5642824412     29.990      2.480      3.861    0.166 
 483873.00    30.4882442229   114.5643058071     30.167      1.877      5.130    0.215 
 483874.00    30.4882940614   114.5643257648     30.369      1.987      5.885    0.205 
 483875.00    30.4883504021   114.5643478575     30.597      2.221      6.605    0.266 
 483876.00    30.4884128064   114.5643724379     30.858      2.457      7.243    0.260 
 483877.00    30.4884812433   114.5643990398     31.130      2.683      7.932    0.266 
 483878.00    30.4885555689   114.5644284443     31.441      2.917      8.478    0.335 
 483879.00    30.4886349609   114.5644608048     31.747      3.224      9.028    0.330 
 483880.00    30.4887152029   114.5644947990     32.047      3.306      8.707    0.296 
 483881.00    30.4887932135   114.5645291137     32.355      3.252      8.437    0.261 
 483882.00    30.4888664965   114.5645622042     32.585      3.101      7.749    0.189 
 483883.00    30.4889330981   114.5645937012     32.816      3.055      6.935    0.172 
 483884.00    30.4889904940   114.5646268471     33.037      3.265      5.817    0.272 
 483885.00    30.4890364406   114.5646614031     33.217      3.463      4.419    0.040 
 483886.00    30.4890696749   114.5646986359     33.243      3.714      2.958    0.012 
 483887.00    30.4890900357   114.5647376214     33.248      4.116      1.856    0.014 
 483888.00    30.4891037931   114.5647851824     33.286      5.248      1.141    0.067 
 483889.00    30.4891093341   114.5648437424     33.320      6.150      0.176    0.030 
 483890.00    30.4891077342   114.5649114148     33.334      7.017     -0.533    0.007 
 483891.00    30.4891005844   114.5649887144     33.342      7.963     -0.969    0.003 
 483892.00    30.4890910757   114.5650759838     33.374      8.827     -1.149    0.039 
 483893.00    30.4890793698   114.5651723444     33.401      9.675     -1.488    0.038 
 483894.00    30.4890638076   114.5652766817     33.452     10.399     -1.925    0.027 
 483895.00    30.4890452818   114.5653882172     33.484     10.969     -2.051    0.034 
 483896.00    30.4890282656   114.5655023602     33.548     10.844     -1.700    0.084 
 483897.00    30.4890131700   114.5656159763     33.639     10.974     -1.673    0.093 
 483898.00    30.4889986925   114.5657313193     33.750     11.251     -1.599    0.114 
 483899.00    30.4889839894   114.5658504614     33.864     11.595     -1.674    0.145 
 483900.00    30.4889683958   114.5659726086     34.004     11.822     -1.808    0.146 
 483901.00    30.4889515077   114.5660953419     34.157     11.556     -1.911    0.157 
 483902.00    30.4889349013   114.5662065649     34.289      9.672     -1.671    0.100 
 483903.00    30.4889218311   114.5662957546     34.388      7.369     -1.211    0.098 
 483904.00    30.4889130988   114.5663585045     34.459      4.586     -0.693    0.065 
 483905.00    30.4889090054   114.5663894117     34.497      1.424     -0.210    0.027 
 483906.00    30.4889085432   114.5663928009     34.498      0.001      0.017    0.011 
 483907.00    30.4889085393   114.5663928729     34.503     -0.005     -0.028    0.005 
 483908.00    30.4889085388   114.5663928715     34.503      0.007      0.016   -0.004 
 483909.00    30.4889085313   114.5663928751     34.502      0.003     -0.023    0.002 
 483910.00    30.4889085256   114.5663928808     34.502      0.002      0.032   -0.005 
 483911.00    30.4889085184   114.5663928929     34.502     -0.007      0.001    0.003 
 483912.00    30.4889085121   114.5663928959     34.502     -0.010     -0.008    0.003 
 483913.00    30.4889085088   114.5663929027     34.501      0.002      0.036   -0.008 
 483914.00    30.4889085081   114.5663929000     34.501     -0.010     -0.031    0.009 
 483915.00    30.4889085149   114.5663928988     34.502      0.005      0.016   -0.002 
 483916.00    30.4889085253   114.5663928975     34.503      0.011      0.025   -0.006 
 483917.00    30.4889085285   114.5663928953     34.503      0.003     -0.028    0.005 
 483918.00    30.4889085341   114.5663928910     34.504      0.002      0.038   -0.006 
 483919.00    30.4889085387   114.5663928917     34.504     -0.008     -0.002    0.003 
 483920.00    30.4889085404   114.5663929000     34.504     -0.001      0.003    0.000 
 483921.00    30.4889085386   114.5663928974     34.504     -0.009     -0.006    0.004 
 483922.00    30.4889085338   114.5663928982     34.504      0.003     -0.011    0.000 
 483923.00    30.4889085275   114.5663928930     34.504     -0.005     -0.011    0.005 
 483924.00    30.4889085252   114.5663928941     34.504     -0.004     -0.009    0.007 
 483925.00    30.4889085272   114.5663928881     34.505      0.000     -0.035    0.009 
 483926.00    30.4889085330   114.5663928861     34.506      0.000      0.009   -0.000 
 483927.00    30.4889085396   114.5663928863     34.506     -0.002     -0.007    0.004 
 483928.00    30.4889085413   114.5663928815     34.506     -0.005     -0.017    0.003 
 483929.00    30.4889085357   114.5663928801     34.506     -0.006     -0.027    0.005 
 483930.00    30.4889085283   114.5663928783     34.506     -0.011     -0.017    0.005 
 483931.00    30.4889085215   114.5663928769     34.507     -0.006     -0.011    0.005 
 483932.00    30.4889085178   114.5663928778     34.507      0.005      0.020   -0.004 
 483933.00    30.4889085186   114.5663928738     34.508      0.009      0.028   -0.005 
 483934.00    30.4889085230   114.5663928725     34.508      0.012     -0.007   -0.001 
 483935.00    30.4889085271   114.5663928721     34.508     -0.003     -0.009    0.002 
 483936.00    30.4889085299   114.5663928766     34.507     -0.005     -0.018    0.004 
 483937.00    30.4889085274   114.5663928703     34.507     -0.012     -0.010    0.003 
 483938.00    30.4889084609   114.5663934454     34.508      0.340     -0.054   -0.007 
 483939.00    30.4889068944   114.5664054462     34.527      2.042     -0.295    0.031 
 483940.00    30.4889029610   114.5664358564     34.570      3.812     -0.569    0.056 
 483941.00    30.4888967874   114.5664838838     34.642      5.382     -0.798    0.082 
 483942.00    30.4888889018   114.5665423614     34.717      5.532     -0.894    0.073 
 483943.00    30.4888804366   114.5666000787     34.777      5.756     -1.027    0.065 
 483944.00    30.4888704890   114.5666641417     34.845      6.619     -1.184    0.086 
 483945.00    30.4888594585   114.5667372798     34.934      7.231     -1.208    0.098 
 483946.00    30.4888487193   114.5668107892     35.020      7.074     -1.193    0.088 
 483947.00    30.4888378626   114.5668872876     35.116      7.709     -1.228    0.128 
 483948.00    30.4888263277   114.5669710135     35.224      8.362     -1.276    0.105 
 483949.00    30.4888152478   114.5670615757     35.322      8.970     -1.156    0.135 
 483950.00    30.4888065888   114.5671579721     35.474      9.440     -0.938    0.139 
 483951.00    30.4887980110   114.5672577812     35.603      9.683     -0.951    0.135 
 483952.00    30.4887897460   114.5673568804     35.749      9.263     -0.938    0.124 
 483953.00    30.4887816855   114.5674521832     35.870      9.168     -0.887    0.092 
 483954.00    30.4887747362   114.5675464112     35.978      8.910     -0.616    0.127 
 483955.00    30.4887715728   114.5676391423     36.090      8.782     -0.008    0.154 
 483956.00    30.4887725785   114.5677308442     36.201      8.910      0.084    0.117 
 483957.00    30.4887730882   114.5678246609     36.352      9.150     -0.013    0.126 
 483958.00    30.4887722901   114.5679209863     36.490      9.257     -0.195    0.153 
 483959.00    30.4887690939   114.5680169130     36.634      9.314     -0.551    0.139 
 483960.00    30.4887629801   114.5681137825     36.766      9.340     -0.815    0.097 
 483961.00    30.4887547590   114.5682104264     36.905      9.348     -0.950    0.114 
 483962.00    30.4887447982   114.5683092849     37.029      9.638     -1.216    0.114 
 483963.00    30.4887321614   114.5684108688     37.135      9.879     -1.485    0.124 
 483964.00    30.4887184968   114.5685154292     37.253     10.179     -1.568    0.137 
 483965.00    30.4887039386   114.5686229042     37.361     10.469     -1.663    0.097 
 483966.00    30.4886882005   114.5687323837     37.446     10.410     -1.865    0.084 
 483967.00    30.4886715172   114.5688410001     37.541     10.562     -1.883    0.060 
 483968.00    30.4886543541   114.5689522187     37.620     10.751     -1.879    0.119 
 483969.00    30.4886370921   114.5690655814     37.693     10.974     -1.914    0.065 
 483970.00    30.4886199372   114.5691800540     37.752     10.910     -1.914    0.062 
 483971.00    30.4886034576   114.5692940329     37.804     11.015     -1.814    0.054 
 483972.00    30.4885873056   114.5694095609     37.857     11.125     -1.765    0.044 
 483973.00    30.4885709169   114.5695263407     37.900     11.329     -1.860    0.032 
 483974.00    30.4885537885   114.5696465559     37.927     11.763     -1.934    0.011 
 483975.00    30.4885363823   114.5697711316     37.948     12.125     -1.886    0.029 
 483976.00    30.4885190900   114.5698991249     37.963     12.388     -1.901    0.022 
 483977.00    30.4885019481   114.5700294173     37.977     12.578     -1.870   -0.012 
 483978.00    30.4884844405   114.5701621391     37.967     12.904     -2.003    0.013 
 483979.00    30.4884660785   114.5702989520     37.946     13.394     -2.096   -0.048 
 483980.00    30.4884467071   114.5704400637     37.914     13.801     -2.156   -0.069 
 483981.00    30.4884260180   114.5705840415     37.880     13.767     -2.401   -0.008 
 483982.00    30.4884051676   114.5707261416     37.813     13.468     -2.263   -0.034 
 483983.00    30.4883845109   114.5708653946     37.737     13.319     -2.422   -0.058 
 483984.00    30.4883624878   114.5710053388     37.648     13.518     -2.459   -0.105 
 483985.00    30.4883408747   114.5711478756     37.557     13.829     -2.344   -0.081 
 483986.00    30.4883203672   114.5712921733     37.468     13.703     -2.230   -0.060 
 483987.00    30.4883002466   114.5714364886     37.344     13.947     -2.235   -0.123 
 483988.00    30.4882806021   114.5715827385     37.200     14.084     -2.130   -0.145 
 483989.00    30.4882617080   114.5717303971     37.058     14.269     -2.124   -0.149 
 483990.00    30.4882421068   114.5718796596     36.898     14.418     -2.245   -0.195 
 483991.00    30.4882212170   114.5720303816     36.707     14.533     -2.388   -0.192 
 483992.00    30.4881989908   114.5721823589     36.518     14.599     -2.499   -0.227 
 483993.00    30.4881763837   114.5723350103     36.303     14.708     -2.516   -0.222 
 483994.00    30.4881539179   114.5724880815     36.077     14.722     -2.399   -0.321 
 483995.00    30.4881318606   114.5726410478     35.825     14.746     -2.436   -0.252 
 483996.00    30.4881097522   114.5727959156     35.567     14.886     -2.486   -0.289 
 483997.00    30.4880874999   114.5729505927     35.303     14.871     -2.498   -0.309 
 483998.00    30.4880652420   114.5731050621     35.024     14.859     -2.471   -0.278 
 483999.00    30.4880435762   114.5732599874     34.737     14.867     -2.365   -0.262 
 484000.00    30.4880222832   114.5734152914     34.459     14.929     -2.379   -0.273 
 484001.00    30.4880004156   114.5735721088     34.168     15.198     -2.466   -0.277 
 484002.00    30.4879777445   114.5737322509     33.877     15.489     -2.531   -0.275 
 484003.00    30.4879545572   114.5738954390     33.571     15.823     -2.607   -0.307 
 484004.00    30.4879309726   114.5740616784     33.256     16.138     -2.597   -0.352 
 484005.00    30.4879072565   114.5742309622     32.944     16.403     -2.614   -0.329 
 484006.00    30.4878834651   114.5744034955     32.614     16.717     -2.594   -0.334 
 484007.00    30.4878599608   114.5745793211     32.279     17.057     -2.654   -0.297 
 484008.00    30.4878361492   114.5747570610     31.976     16.977     -2.687   -0.326 
 484009.00    30.4878116429   114.5749329862     31.673     16.908     -2.753   -0.297 
 484010.00    30.4877864830   114.5751111010     31.344     17.279     -2.821   -0.332 
 484011.00    30.4877607084   114.5752934256     31.021     17.710     -2.882   -0.321 
 484012.00    30.4877338871   114.5754798966     30.665     18.100     -3.074   -0.363 
 484013.00    30.4877059783   114.5756699780     30.315     18.414     -3.175   -0.343 
 484014.00    30.4876773194   114.5758632103     29.960     18.620     -3.253   -0.360 
 484015.00    30.4876482170   114.5760564068     29.614     18.528     -3.208   -0.399 
 484016.00    30.4876192254   114.5762496805     29.253     18.604     -3.197   -0.348 
 484017.00    30.4875904111   114.5764437324     28.888     18.602     -3.149   -0.362 
 484018.00    30.4875623010   114.5766375780     28.530     18.626     -3.117   -0.359 
 484019.00    30.4875344063   114.5768312454     28.162     18.508     -3.068   -0.375 
 484020.00    30.4875069739   114.5770223861     27.802     18.203     -3.011   -0.327 
 484021.00    30.4874800952   114.5772107715     27.461     17.958     -2.849   -0.272 
 484022.00    30.4874540475   114.5773963627     27.120     17.708     -2.857   -0.297 
 484023.00    30.4874287861   114.5775792278     26.768     17.377     -2.801   -0.309 
 484024.00    30.4874038037   114.5777593473     26.435     17.193     -2.758   -0.373 
 484025.00    30.4873790444   114.5779367673     26.100     16.906     -2.761   -0.333 
 484026.00    30.4873544109   114.5781115159     25.803     16.653     -2.693   -0.325 
 484027.00    30.4873301033   114.5782835978     25.477     16.396     -2.738   -0.306 
 484028.00    30.4873054896   114.5784529267     25.166     16.130     -2.757   -0.361 
 484029.00    30.4872814062   114.5786197327     24.861     15.860     -2.678   -0.304 
 484030.00    30.4872575779   114.5787840703     24.553     15.734     -2.547   -0.307 
 484031.00    30.4872346597   114.5789459729     24.262     15.441     -2.525   -0.260 
 484032.00    30.4872125399   114.5791055125     24.032     15.183     -2.397   -0.241 
 484033.00    30.4871913080   114.5792623522     23.815     14.931     -2.306   -0.174 
 484034.00    30.4871708826   114.5794145078     23.639     14.045     -2.211   -0.176 
 484035.00    30.4871515601   114.5795532286     23.449     12.529     -2.075   -0.155 
 484036.00    30.4871340976   114.5796746590     23.304     10.745     -1.760   -0.118 
 484037.00    30.4871201662   114.5797768852     23.194      8.840     -1.350   -0.074 
 484038.00    30.4871094503   114.5798581139     23.112      6.739     -1.051   -0.067 
 484039.00    30.4871015708   114.5799163332     23.059      4.362     -0.693   -0.042 
 484040.00    30.4870971684   114.5799479974     23.027      1.894     -0.321   -0.017 
 484041.00    30.4870951045   114.5799624455     23.013      1.119     -0.174   -0.012 
 484042.00    30.4870939304   114.5799705999     23.007      0.432     -0.069   -0.002 
 484043.00    30.4870937651   114.5799717128     23.007      0.005      0.005   -0.001 
 484044.00    30.4870937624   114.5799717076     23.007     -0.007      0.007   -0.002 
 484045.00    30.4870937548   114.5799717107     23.007     -0.000     -0.018    0.003 
 484046.00    30.4870937493   114.5799717094     23.007     -0.004     -0.010    0.003 
 484047.00    30.4870937485   114.5799717121     23.007     -0.001     -0.028    0.007 
 484048.00    30.4870937516   114.5799717134     23.006      0.005      0.035   -0.009 
 484049.00    30.4870937495   114.5799717949     23.006      0.058     -0.010    0.004 
 484050.00    30.4870933801   114.5799743498     23.002      0.514     -0.087   -0.005 
