
   GPSTime         Latitude        Longitude      H-Ell          Roll         Pitch       Heading  
     (sec)            (Deg)            (Deg)        (m)         (Deg)         (Deg)         (Deg)  
453507.000    30.4540870419   114.5848413696     19.755    2.85954747    1.92406807  300.20114919 
453508.000    30.4541573301   114.5846870785     19.795    3.05100071    1.87112106  300.08668374 
453509.000    30.4542286620   114.5845292823     19.873    3.19729029    1.61416757  300.00076056 
453510.000    30.4543010966   114.5843682661     19.970    3.44297274    1.76747386  299.86253872 
453511.000    30.4543740646   114.5842047360     20.035    3.52647211    1.64658027  299.63527348 
453512.000    30.4544473523   114.5840391007     20.147    3.52902310    1.79164799  299.39741178 
453513.000    30.4545209208   114.5838712845     20.228    3.19523564    1.94722875  299.15454940 
453514.000    30.4545949220   114.5837014850     20.311    3.85210850    1.92650323  298.92397322 
453515.000    30.4546693453   114.5835303314     20.435    3.30840225    1.77674318  298.82240949 
453516.000    30.4547434744   114.5833577203     20.510    3.35291092    1.49444016  298.56044860 
453517.000    30.4548178579   114.5831835916     20.567    3.32753039    1.80696740  298.52339160 
453518.000    30.4548929754   114.5830081706     20.635    3.45780559    1.73172850  298.60685222 
453519.000    30.4549694151   114.5828316803     20.696    3.42222952    1.68338770  298.85466751 
453520.000    30.4550472482   114.5826538142     20.745    3.80338201    1.52983168  298.97945859 
453521.000    30.4551259188   114.5824749967     20.763    3.84337288    1.58528104  299.08270392 
453522.000    30.4552051806   114.5822955394     20.790    3.90722124    1.51042077  298.95381283 
453523.000    30.4552840941   114.5821145112     20.827    3.65905379    1.48285380  298.69172333 
453524.000    30.4553634632   114.5819317450     20.849    3.67612959    1.43913228  298.59782226 
453525.000    30.4554431727   114.5817478996     20.844    3.75477488    1.38706300  298.55028389 
453526.000    30.4555235018   114.5815628504     20.815    4.24741085    1.18649334  298.16952182 
453527.000    30.4556039915   114.5813748638     20.796    4.01019637    1.30570852  297.95842783 
453528.000    30.4556846430   114.5811833498     20.765    4.45073857    1.26682211  297.46549781 
453529.000    30.4557654196   114.5809882513     20.718    4.32509581    1.36885429  297.16513352 
453530.000    30.4558469518   114.5807899737     20.665    3.97985044    1.43093180  297.04693861 
453531.000    30.4559294862   114.5805890407     20.604    3.57637719    1.44473082  296.96787184 
453532.000    30.4560131036   114.5803852645     20.503    3.47680361    1.25120149  296.90506207 
453533.000    30.4560989580   114.5801788679     20.370    3.34068100    1.23110427  297.53780241 
453534.000    30.4561883246   114.5799703747     20.218    3.54724072    1.22622003  297.98298041 
453535.000    30.4562796626   114.5797589693     20.078    3.70158887    1.41951109  297.92209317 
453536.000    30.4563720654   114.5795442948     19.936    3.59341260    1.49570005  297.82575995 
453537.000    30.4564656692   114.5793265550     19.788    3.53998124    1.40542585  297.88492482 
453538.000    30.4565607925   114.5791066883     19.609    3.67950091    1.16123104  297.80695824 
453539.000    30.4566554972   114.5788884690     19.438    3.55528181    1.04137245  298.01998689 
453540.000    30.4567497309   114.5786741006     19.264    3.31298827    1.08041635  298.31872394 
453541.000    30.4568434230   114.5784616590     19.099    3.68598066    1.20973670  298.05539218 
453542.000    30.4569367533   114.5782475632     18.932    3.72224626    1.44068432  297.71354356 
453543.000    30.4570305789   114.5780313728     18.798    3.93500848    1.31748155  297.76094330 
453544.000    30.4571258966   114.5778127201     18.631    3.80972887    1.31944719  297.81680003 
453545.000    30.4572231024   114.5775908628     18.481    4.00404018    1.39876099  297.85269372 
453546.000    30.4573217614   114.5773655047     18.319    3.78670804    1.32597510  297.73145749 
453547.000    30.4574212583   114.5771361860     18.151    3.86792375    1.36401062  297.48149955 
453548.000    30.4575220935   114.5769032012     17.960    3.92321309    1.34902338  297.51751032 
453549.000    30.4576250216   114.5766671247     17.790    3.91733030    1.29855636  297.66946662 
453550.000    30.4577296707   114.5764280067     17.603    3.80658047    1.34507105  297.66820250 
453551.000    30.4578360777   114.5761859567     17.405    3.93333320    1.22492936  297.66751974 
453552.000    30.4579440790   114.5759410427     17.196    3.99482072    1.30465729  297.71126360 
453553.000    30.4580539004   114.5756939538     16.972    3.81487329    1.23592878  297.99334005 
453554.000    30.4581644494   114.5754481586     16.773    3.77154973    1.06008931  298.09253977 
453555.000    30.4582730713   114.5752062421     16.593    3.75997881    0.94419713  298.01253383 
453556.000    30.4583794458   114.5749679556     16.427    3.62947272    1.10229259  297.89762473 
453557.000    30.4584848507   114.5747324077     16.247    3.72603466    0.95406994  297.90630466 
453558.000    30.4585896100   114.5744976947     16.094    3.92228710    1.14270054  297.83177142 
453559.000    30.4586944158   114.5742643048     15.919    3.80847929    1.14284899  298.07559618 
453560.000    30.4587995339   114.5740328667     15.742    4.09576699    1.14491023  298.16010628 
453561.000    30.4589031560   114.5738029196     15.561    4.34026939    1.07204555  297.72781103 
453562.000    30.4590044882   114.5735741717     15.361    4.25193957    1.09481372  297.33725208 
453563.000    30.4591047743   114.5733445915     15.189    4.20815795    1.21074626  297.06638622 
453564.000    30.4592055858   114.5731137783     15.009    4.19783295    1.24966323  297.22715189 
453565.000    30.4593079628   114.5728816765     14.828    3.97651352    1.21607437  297.39782663 
453566.000    30.4594113863   114.5726476368     14.661    3.71277157    1.49376248  297.10347416 
453567.000    30.4595137259   114.5724117485     14.461    4.33078559    1.29828648  296.83264175 
453568.000    30.4596157647   114.5721764561     14.373    4.23492725    1.39227070  296.84446500 
453569.000    30.4597162807   114.5719418711     14.285    4.30875093    1.45818567  296.13298652 
453570.000    30.4598129203   114.5717076040     14.293    4.25231490    1.71739196  295.14845741 
453571.000    30.4599073955   114.5714721974     14.346    4.21610791    1.83338882  294.85510625 
453572.000    30.4600015735   114.5712353600     14.471    4.06727067    1.95549674  294.64022342 
453573.000    30.4600955979   114.5709968964     14.655    4.08444174    2.18437366  294.39630110 
453574.000    30.4601889842   114.5707571674     14.895    3.80301337    2.17144779  294.07646431 
453575.000    30.4602814640   114.5705166515     15.189    3.58905547    2.43578193  293.74408521 
453576.000    30.4603728221   114.5702759137     15.581    3.74313102    2.57769109  293.47592355 
453577.000    30.4604628638   114.5700345044     16.025    3.84012621    2.80806739  292.98819569 
453578.000    30.4605516246   114.5697923022     16.561    3.78068493    2.77633763  292.67959044 
453579.000    30.4606396723   114.5695499500     17.094    4.15122836    2.97356593  292.51825682 
453580.000    30.4607270158   114.5693074980     17.706    3.70626912    2.95243995  292.31886455 
453581.000    30.4608133184   114.5690648756     18.314    3.95269877    2.93953395  291.99192229 
453582.000    30.4608983495   114.5688224028     18.882    4.16617689    2.94512214  291.74063597 
453583.000    30.4609824764   114.5685799044     19.459    4.37561859    2.97287808  291.40100762 
453584.000    30.4610650646   114.5683367713     20.037    3.97259119    3.09241616  291.04271149 
453585.000    30.4611465328   114.5680930116     20.647    3.91305500    3.09633678  290.69523672 
453586.000    30.4612266847   114.5678489758     21.174    3.96031143    3.07350133  290.32708541 
453587.000    30.4613051456   114.5676050277     21.722    3.74422470    2.82186197  289.91370941 
453588.000    30.4613821615   114.5673602499     22.203    3.82029665    2.77464217  289.44893962 
453589.000    30.4614579596   114.5671141923     22.652    3.90644995    2.67507812  289.08584511 
453590.000    30.4615327339   114.5668666112     23.038    4.27026303    2.44072397  288.56610839 
453591.000    30.4616059163   114.5666169313     23.389    4.51610518    2.50833069  288.10824286 
453592.000    30.4616783780   114.5663652639     23.705    4.34144870    2.46610252  287.77713283 
453593.000    30.4617499219   114.5661115065     23.977    3.98530380    2.36803974  287.35165481 
453594.000    30.4618203977   114.5658553039     24.202    3.79818583    2.18565231  286.96498516 
453595.000    30.4618909545   114.5655973453     24.376    3.78237801    2.01832626  286.88786451 
453596.000    30.4619612628   114.5653390746     24.523    3.94198406    1.98462986  286.77073005 
453597.000    30.4620308962   114.5650832851     24.610    3.71789050    1.77068233  286.82490987 
453598.000    30.4620998476   114.5648304336     24.675    4.02744714    1.79731945  286.71035823 
453599.000    30.4621666856   114.5645795023     24.691    4.08743307    1.64140231  286.22305632 
453600.000    30.4622316489   114.5643305743     24.652    3.99250210    1.45081883  285.95563919 
453601.000    30.4622949165   114.5640838215     24.596    4.14702681    1.43217063  285.68506243 
453602.000    30.4623566315   114.5638386341     24.507    3.95443427    1.31737865  285.40487314 
453603.000    30.4624167864   114.5635953464     24.421    4.27969130    1.18277997  285.02991556 
453604.000    30.4624747609   114.5633557948     24.364    4.12600462    1.33393724  284.76167413 
453605.000    30.4625307775   114.5631201316     24.280    4.06630979    1.28664887  284.55047595 
453606.000    30.4625855328   114.5628879164     24.208    4.10412597    1.31227785  284.46371371 
453607.000    30.4626396793   114.5626575530     24.143    4.03253147    1.37936467  284.39130024 
453608.000    30.4626935820   114.5624276950     24.113    3.95642655    1.43869329  284.37002950 
453609.000    30.4627477739   114.5621980095     24.087    3.80982619    1.49372375  284.48925369 
453610.000    30.4628024068   114.5619683249     24.053    3.79868187    1.43182301  284.53681930 
453611.000    30.4628574311   114.5617367769     23.995    3.90574771    1.48788327  284.37088927 
453612.000    30.4629125528   114.5615020097     23.906    3.97899845    1.50522039  284.21146727 
453613.000    30.4629685448   114.5612637271     23.782    3.81295006    1.52855928  284.29732561 
453614.000    30.4630258341   114.5610219719     23.682    3.82867968    1.54589213  284.38243674 
453615.000    30.4630842687   114.5607768296     23.592    3.90359804    1.55147098  284.42109604 
453616.000    30.4631435449   114.5605285303     23.499    3.87403635    1.49816984  284.41845658 
453617.000    30.4632030016   114.5602807510     23.430    3.90934403    1.38917463  284.61298091 
453618.000    30.4632627644   114.5600351251     23.343    4.04059905    1.35893180  284.62980576 
453619.000    30.4633220384   114.5597912877     23.250    3.95275081    1.31635938  284.63563880 
453620.000    30.4633807219   114.5595509426     23.171    4.05959155    1.43976207  284.69397132 
453621.000    30.4634392758   114.5593113557     23.134    3.99068012    1.57362531  284.62437887 
453622.000    30.4634976276   114.5590707101     23.176    4.05531305    1.51031958  284.41420972 
453623.000    30.4635546659   114.5588303164     23.340    3.91267017    1.45902447  284.25910495 
453624.000    30.4636096912   114.5585914027     23.620    3.83114116    1.52609671  284.11808329 
453625.000    30.4636634637   114.5583540714     23.923    3.72769219    1.41945826  284.08426781 
453626.000    30.4637171719   114.5581178770     24.158    3.87565688    1.53280343  284.05605384 
453627.000    30.4637718090   114.5578812587     24.277    3.88180406    1.55580658  284.08851174 
453628.000    30.4638278617   114.5576425328     24.291    3.90092506    1.48175437  284.07926373 
453629.000    30.4638851018   114.5574010985     24.231    3.97557935    1.45826016  284.07500955 
453630.000    30.4639431329   114.5571586665     24.118    3.96700686    1.23805986  284.14901271 
453631.000    30.4640012062   114.5569198879     23.938    3.92105447    1.08356907  284.17925275 
453632.000    30.4640595460   114.5566845128     23.631    3.78697732    1.32811267  284.36324277 
453633.000    30.4641196355   114.5564493168     23.164    3.63884806    1.34110592  284.72510879 
453634.000    30.4641818057   114.5562131136     22.678    3.64710765    1.53130037  285.20708236 
453635.000    30.4642444226   114.5559754594     22.293    3.93603967    1.47524817  285.29191184 
453636.000    30.4643057757   114.5557402339     22.029    3.72440750    1.14055174  285.35064415 
453637.000    30.4643663466   114.5555082803     21.875    3.53924007    1.56088852  285.54696449 
453638.000    30.4644276355   114.5552763922     21.820    4.02857120    1.47959898  285.52092822 
453639.000    30.4644892121   114.5550419960     21.801    3.89778513    1.58496156  285.39739063 
453640.000    30.4645514230   114.5548043928     21.759    4.29428139    1.48440836  285.38224636 
453641.000    30.4646155230   114.5545635777     21.654    4.00075491    1.71097393  285.81132611 
453642.000    30.4646816687   114.5543206555     21.615    4.08009756    1.36330923  286.07965936 
453643.000    30.4647484234   114.5540785369     21.546    4.12651789    1.47798743  286.14817094 
453644.000    30.4648149211   114.5538366551     21.465    3.98806234    1.43082526  286.02816588 
453645.000    30.4648801511   114.5535977628     21.384    4.17916655    1.38222381  285.86614130 
453646.000    30.4649447365   114.5533626022     21.322    3.98879873    1.70283062  286.17311602 
453647.000    30.4650099374   114.5531309958     21.262    4.00365694    1.29868724  286.46275543 
453648.000    30.4650750054   114.5529036181     21.160    3.87221544    1.30066671  286.85771551 
453649.000    30.4651406798   114.5526794380     21.092    3.81310117    1.49525737  287.23468344 
453650.000    30.4652055664   114.5524575629     21.020    4.13499308    1.34172044  286.65267365 
453651.000    30.4652682109   114.5522390519     20.946    3.94874286    1.32243309  286.65391485 
453652.000    30.4653299824   114.5520244408     20.871    3.97293367    1.41158244  286.72689292 
453653.000    30.4653911836   114.5518137850     20.810    3.94942147    1.36890406  286.95470574 
453654.000    30.4654523840   114.5516074229     20.750    4.05332892    1.46714912  287.30180180 
453655.000    30.4655137088   114.5514048962     20.673    4.03077986    1.54488375  287.66196872 
453656.000    30.4655751103   114.5512034413     20.620    4.21877387    1.46229320  287.55874460 
453657.000    30.4656362049   114.5510012033     20.548    4.44512016    1.57236759  287.27013914 
453658.000    30.4656972839   114.5507974731     20.491    4.39061100    1.54894115  287.26646080 
453659.000    30.4657597964   114.5505909491     20.427    4.36846870    1.54273794  287.51570077 
453660.000    30.4658242974   114.5503808616     20.364    4.33404904    1.64444438  287.72436219 
453661.000    30.4658902606   114.5501667407     20.304    4.13103754    1.59211171  287.64411821 
453662.000    30.4659571929   114.5499485343     20.279    4.12924823    1.65424481  287.56562077 
453663.000    30.4660261345   114.5497266394     20.186    4.05871135    1.59279886  287.88066140 
453664.000    30.4660965857   114.5495012824     20.124    4.28393024    1.56179742  287.95562055 
453665.000    30.4661684783   114.5492770151     20.055    4.23690008    1.37449343  288.68010853 
453666.000    30.4662415288   114.5490556390     19.975    4.13045348    1.61394793  288.89852066 
453667.000    30.4663149838   114.5488336171     19.939    4.52777515    1.69626831  288.74700451 
453668.000    30.4663884010   114.5486083675     19.837    4.05940671    1.57919537  288.53404873 
453669.000    30.4664627782   114.5483793070     19.758    4.33215715    1.73398696  288.52989528 
453670.000    30.4665393200   114.5481468018     19.686    4.46117615    1.58311953  288.98436350 
453671.000    30.4666183096   114.5479109317     19.564    4.40774028    1.47804657  289.08172229 
453672.000    30.4666985696   114.5476716396     19.419    4.05493856    1.25438069  289.09676005 
453673.000    30.4667796194   114.5474306497     19.224    4.23543617    1.21560027  289.14468456 
453674.000    30.4668619384   114.5471876996     18.993    4.11409371    1.22507352  289.34526717 
453675.000    30.4669453289   114.5469441387     18.757    4.25381554    1.14996850  289.53201274 
453676.000    30.4670296255   114.5466997195     18.491    4.21160950    0.93648763  289.58695092 
453677.000    30.4671147715   114.5464537937     18.196    4.32276996    0.91395184  289.63629188 
453678.000    30.4672002972   114.5462079105     17.926    4.24889932    1.01779169  289.84882292 
453679.000    30.4672872800   114.5459620833     17.624    4.20336305    1.01072833  290.17291213 
453680.000    30.4673758486   114.5457149982     17.323    4.28745681    1.06787011  290.33940614 
453681.000    30.4674650992   114.5454668358     16.970    4.25159620    0.97940541  290.32256619 
453682.000    30.4675545908   114.5452181083     16.635    4.38017380    0.94229893  290.32470438 
453683.000    30.4676443317   114.5449689027     16.287    4.45188324    0.87979392  290.30749951 
453684.000    30.4677339355   114.5447201737     15.958    4.33794713    1.11056465  290.29013158 
453685.000    30.4678238555   114.5444697645     15.674    4.11384458    1.27782915  290.08194896 
453686.000    30.4679138641   114.5442166172     15.251    4.16248000    1.36806602  289.95793369 
453687.000    30.4680046481   114.5439605658     14.930    4.48869857    0.97841157  289.89261469 
453688.000    30.4680957660   114.5437032529     14.660    4.27533954    1.21460522  289.92263238 
453689.000    30.4681875169   114.5434446907     14.453    4.37368637    1.26921189  289.93009015 
453690.000    30.4682799182   114.5431848975     14.183    4.34593339    1.11308463  290.02916332 
453691.000    30.4683730923   114.5429240817     13.877    4.20103367    0.87011780  290.03022733 
453692.000    30.4684658107   114.5426644120     13.560    4.13909262    0.98458866  290.00921027 
453693.000    30.4685581609   114.5424058730     13.245    4.26631914    0.92948123  289.99755170 
453694.000    30.4686505801   114.5421479488     12.903    4.40637923    0.85896132  290.06637994 
453695.000    30.4687433080   114.5418894513     12.551    4.37685987    0.96221386  290.04751277 
453696.000    30.4688364984   114.5416292986     12.248    4.35720583    1.01902069  289.93568406 
453697.000    30.4689298797   114.5413666837     11.975    4.36841435    1.18656301  289.77848732 
453698.000    30.4690238347   114.5411014115     11.717    4.34469047    1.33831498  289.72309489 
453699.000    30.4691186869   114.5408335279     11.504    4.27864971    1.30572021  289.71794481 
453700.000    30.4692145476   114.5405630367     11.296    4.27023839    1.28630739  289.68193962 
453701.000    30.4693114792   114.5402899755     11.066    4.23946356    1.36061902  289.82608658 
453702.000    30.4694098268   114.5400154183     10.850    4.29763373    1.25650905  289.94202180 
453703.000    30.4695082061   114.5397412835     10.663    4.45882416    1.32833073  289.84996366 
