GPSTime         Latitude        Longitude      H-Ell      Vel-N      Vel-E    Vel-U       Q  
(sec)            (Deg)            (Deg)        (m)      (m/s)      (m/s)    (m/s)          
133114.000    39.9990438016   116.8209507111     24.504     -5.744      7.327   -0.082       1 
133115.000    39.9989897105   116.8210401186     24.440     -6.273      7.957   -0.044       1 
133116.000    39.9989309891   116.8211369046     24.411     -6.738      8.545   -0.011       1 
133117.000    39.9988690119   116.8212387240     24.373     -6.994      8.783   -0.035       1 
133118.000    39.9988049298   116.8213439878     24.326     -7.254      9.200   -0.049       1 
133119.000    39.9987385291   116.8214540536     24.275     -7.483      9.596   -0.041       1 
133120.000    39.9986702969   116.8215683920     24.244     -7.645      9.888   -0.040       1 
133121.000    39.9986012632   116.8216849585     24.200     -7.687      9.999   -0.046       1 
133122.000    39.9985320991   116.8218022889     24.161     -7.650      9.988   -0.043       1 
133123.000    39.9984635667   116.8219185762     24.114     -7.561      9.852   -0.036       1 
133124.000    39.9983958288   116.8220330162     24.072     -7.476      9.699   -0.044       1 
133125.000    39.9983288507   116.8221456450     24.029     -7.388      9.545   -0.034       1 
133126.000    39.9982627267   116.8222563363     24.023     -7.284      9.364   -0.009       1 
133127.000    39.9981975420   116.8223653096     23.978     -7.168      9.259   -0.065       1 
133128.000    39.9981336135   116.8224731630     23.925     -7.034      9.167   -0.027       1 
133129.000    39.9980708824   116.8225799152     23.892     -6.924      9.051   -0.023       1 
133130.000    39.9980088888   116.8226849279     23.857     -6.852      8.884   -0.042       1 
133131.000    39.9979476329   116.8227882690     23.818     -6.771      8.765   -0.047       0 
133132.000    39.9978859564   116.8228920200     23.780     -7.040      9.111   -0.043       1 
133133.000    39.9978202381   116.8230023882     23.735     -7.519      9.757   -0.033       1 
133134.000    39.9977502159   116.8231208230     23.697     -8.074     10.588   -0.052       1 
133135.000    39.9976743770   116.8232505874     23.629     -8.779     11.562   -0.077       1 
133136.000    39.9975919671   116.8233912995     23.582     -9.510     12.458   -0.038       1 
133137.000    39.9975031684   116.8235422182     23.538    -10.204     13.312   -0.046       1 
133138.000    39.9974082996   116.8237025912     23.483    -10.828     14.044   -0.036       1 
133139.000    39.9973092498   116.8238692608     23.431    -11.172     14.413   -0.049       1 
133140.000    39.9972070160   116.8240403583     23.358    -11.527     14.811   -0.072       1 
133141.000    39.9971019941   116.8242151065     23.294    -11.775     15.045   -0.070       1 
133142.000    39.9969942167   116.8243935915     23.210    -12.162     15.481   -0.072       1 
133143.000    39.9968830782   116.8245774991     23.153    -12.460     15.921   -0.067       1 
133144.000    39.9967707060   116.8247650614     23.097    -12.428     16.039   -0.058       1 
133145.000    39.9966595244   116.8249524481     23.023    -12.268     15.945   -0.084       1 
133146.000    39.9965499164   116.8251386294     22.951    -12.086     15.875   -0.042       1 
133147.000    39.9964412634   116.8253244991     22.891    -12.083     15.857   -0.072       1 
133148.000    39.9963316370   116.8255104077     22.825    -12.267     15.956   -0.070       1 
133149.000    39.9962201559   116.8256988423     22.762    -12.464     16.215   -0.057       1 
133150.000    39.9961068059   116.8258899400     22.696    -12.721     16.430   -0.059       1 
133151.000    39.9959912969   116.8260836018     22.598    -12.907     16.623   -0.084       1 
133152.000    39.9958745038   116.8262787672     22.533    -13.054     16.725   -0.029       1 
133153.000    39.9957562172   116.8264755857     22.474    -13.222     16.912   -0.075       1 
133154.000    39.9956364339   116.8266745860     22.434    -13.347     17.085   -0.026       1 
133155.000    39.9955158697   116.8268756707     22.413    -13.455     17.260    0.008       1 
133156.000    39.9953942330   116.8270789493     22.445    -13.543     17.482    0.019       1 
133157.000    39.9952717129   116.8272846872     22.472    -13.654     17.655    0.056       1 
133158.000    39.9951483698   116.8274924327     22.544    -13.724     17.808    0.096       1 
133159.000    39.9950245820   116.8277010793     22.622    -13.760     17.838    0.062       1 
133160.000    39.9949004845   116.8279103883     22.734    -13.766     17.900    0.189       1 
133161.000    39.9947765213   116.8281198702     22.903    -13.757     17.858    0.145       1 
133162.000    39.9946528657   116.8283286128     23.057    -13.705     17.806    0.168       1 
133163.000    39.9945298343   116.8285366978     23.243    -13.643     17.742    0.194       1 
133164.000    39.9944070552   116.8287443337     23.448    -13.632     17.720    0.219       1 
133165.000    39.9942845186   116.8289514313     23.674    -13.582     17.651    0.274       1 
133166.000    39.9941620823   116.8291579987     23.917    -13.583     17.603    0.215       1 
133167.000    39.9940397833   116.8293636048     24.163    -13.549     17.528    0.272       1 
133168.000    39.9939175989   116.8295684339     24.431    -13.576     17.469    0.237       1 
133169.000    39.9937954502   116.8297724975     24.665    -13.572     17.406    0.267       1 
133170.000    39.9936731573   116.8299759905     24.937    -13.585     17.340    0.247       1 
133171.000    39.9935508753   116.8301783599     25.193    -13.561     17.206    0.283       1 
133172.000    39.9934287504   116.8303789652     25.440    -13.522     17.115    0.216       1 
133173.000    39.9933070804   116.8305791088     25.680    -13.476     17.113    0.222       1 
133174.000    39.9931862719   116.8307792195     25.927    -13.355     17.065    0.255       1 
133175.000    39.9930667002   116.8309787898     26.198    -13.189     17.034    0.271       1 
133176.000    39.9929483986   116.8311783052     26.457    -13.067     17.020    0.268       1 
133177.000    39.9928313099   116.8313770137     26.694    -12.866     16.884    0.292       1 
133178.000    39.9927167177   116.8315727601     27.028    -12.605     16.572    0.462       1 
133179.000    39.9926037192   116.8317664685     27.298    -12.513     16.497    0.346       0 
133180.000    39.9924910168   116.8319590202     27.534    -12.537     16.409    0.228       0 
133181.000    39.9923776079   116.8321509666     27.756    -12.646     16.393    0.144       0 
133182.000    39.9922636878   116.8323431503     27.895    -12.654     16.413    0.053       0 
133183.000    39.9921497690   116.8325352601     28.033    -12.655     16.437    0.097       1 
133184.000    39.9920358568   116.8327284846     28.172    -12.641     16.588    0.150       1 
133185.000    39.9919218688   116.8329238115     28.315    -12.680     16.811    0.140       1 
133186.000    39.9918070613   116.8331223080     28.478    -12.806     17.111    0.201       1 
133187.000    39.9916912154   116.8333246533     28.644    -12.886     17.463    0.143       1 
133188.000    39.9915753785   116.8335314961     28.768    -12.828     17.804    0.111       1 
133189.000    39.9914605278   116.8337417454     28.884    -12.698     18.089    0.118       1 
133190.000    39.9913465393   116.8339551284     28.982    -12.620     18.343    0.067       1 
133191.000    39.9912326165   116.8341713199     29.069    -12.658     18.508    0.072       1 
133192.000    39.9911187315   116.8343885011     29.199    -12.646     18.636    0.125       1 
133193.000    39.9910041306   116.8346086563     29.216    -12.783     18.981   -0.003       1 
133194.000    39.9908883412   116.8348332751     29.208    -12.920     19.397   -0.023       1 
133195.000    39.9907713266   116.8350630044     29.158    -13.075     19.842   -0.077       1 
133196.000    39.9906527773   116.8352978512     29.097    -13.181     20.291   -0.067       1 
133197.000    39.9905343367   116.8355394149     28.915    -13.125     20.926   -0.328       1 
133198.000    39.9904165255   116.8357883782     28.705    -13.074     21.544   -0.223       1 
133199.000    39.9902984883   116.8360437625     28.543    -13.177     22.038   -0.140       1 
133200.000    39.9901790727   116.8363042056     28.383    -13.389     22.414   -0.178       1 
133201.000    39.9900573659   116.8365684161     28.177    -13.627     22.686   -0.263       1 
133202.000    39.9899340043   116.8368357693     27.946    -13.723     23.019   -0.231       1 
133203.000    39.9898097126   116.8371075793     27.689    -13.887     23.377   -0.266       1 
133204.000    39.9896850401   116.8373828543     27.432    -13.789     23.633   -0.280       1 
133205.000    39.9895615298   116.8376607299     27.199    -13.652     23.825   -0.236       1 
133206.000    39.9894391341   116.8379408142     26.920    -13.543     24.008   -0.241       1 
133207.000    39.9893176227   116.8382232557     26.675    -13.434     24.241   -0.283       1 
133208.000    39.9891969289   116.8385083749     26.406    -13.380     24.444   -0.210       1 
133209.000    39.9890765800   116.8387958423     26.192    -13.351     24.644   -0.200       1 
133210.000    39.9889571218   116.8390861535     26.020    -13.152     24.981   -0.144       1 
133211.000    39.9888394696   116.8393808677     25.869    -12.982     25.352   -0.144       1 
133212.000    39.9887227853   116.8396793363     25.734    -12.913     25.621   -0.150       1 
133213.000    39.9886069415   116.8399810251     25.610    -12.801     25.875   -0.097       1 
133214.000    39.9884923339   116.8402848501     25.512    -12.675     26.013   -0.069       1 
133215.000    39.9883791649   116.8405902464     25.478    -12.439     26.150   -0.110       1 
133216.000    39.9882679134   116.8408971519     25.527    -12.310     26.262    0.072       1 
133217.000    39.9881582072   116.8412045330     25.691    -12.004     26.263    0.134       1 
133218.000    39.9880505339   116.8415118653     25.783    -11.866     26.258    0.136       1 
133219.000    39.9879450251   116.8418195922     25.911    -11.553     26.310    0.125       1 
133220.000    39.9878419170   116.8421278588     26.037    -11.304     26.288    0.066       1 
133221.000    39.9877417546   116.8424349568     26.130    -10.953     26.126    0.066       1 
133222.000    39.9876442788   116.8427401290     26.216    -10.705     26.005   -0.100       0 
133223.000    39.9875494868   116.8430443738     26.276    -10.365     25.965    0.056       0 
133224.000    39.9874578501   116.8433488986     26.373    -10.094     26.018    0.112       1 
133225.000    39.9873668888   116.8436529270     26.489    -10.051     25.943    0.082       1 
133226.000    39.9872771773   116.8439566849     26.600     -9.902     25.962    0.129       1 
133227.000    39.9871894120   116.8442614818     26.723     -9.567     26.129    0.128       1 
133228.000    39.9871037858   116.8445685352     26.853     -9.536     26.277    0.125       1 
133229.000    39.9870181543   116.8448773450     26.963     -9.438     26.488    0.098       1 
133230.000    39.9869338361   116.8451887417     27.101     -9.253     26.732    0.159       1 
133231.000    39.9868520294   116.8455035954     27.165     -8.942     27.034   -0.008       1 
133232.000    39.9867718357   116.8458222301     27.269     -8.884     27.397    0.103       1 
133233.000    39.9866919182   116.8461451010     27.365     -8.842     27.776    0.101       1 
133234.000    39.9866128217   116.8464726182     27.468     -8.698     28.166    0.098       1 
133235.000    39.9865354373   116.8468050120     27.547     -8.501     28.599    0.048       1 
133236.000    39.9864595806   116.8471420606     27.618     -8.385     28.949    0.026       1 
133237.000    39.9863847928   116.8474806067     27.614     -8.145     28.820    0.044       1 
133238.000    39.9863124141   116.8478187188     27.637     -7.984     28.989   -0.033       1 
133239.000    39.9862406597   116.8481603809     27.525     -7.903     29.400   -0.153       1 
133240.000    39.9861712527   116.8485070747     27.419     -7.510     29.831   -0.105       1 
133241.000    39.9861046834   116.8488574474     27.289     -7.300     29.869   -0.136       1 
133242.000    39.9860400169   116.8492054167     27.108     -7.007     29.496   -0.162       1 
133243.000    39.9859782950   116.8495492783     26.949     -6.723     29.248   -0.097       1 
133244.000    39.9859186388   116.8498898255     26.831     -6.510     28.927   -0.336       1 
133245.000    39.9858621284   116.8502268692     26.568     -6.035     28.659   -0.264       1 
133246.000    39.9858089242   116.8505607275     26.258     -5.789     28.368   -0.333       1 
133247.000    39.9857576760   116.8508912983     25.807     -5.572     28.098   -0.339       1 
133248.000    39.9857090157   116.8512188690     25.432     -5.239     27.848   -0.446       1 
133249.000    39.9856629547   116.8515434659     25.018     -4.991     27.583   -0.382       1 
133250.000    39.9856190356   116.8518650723     24.611     -4.788     27.336   -0.422       1 
133251.000    39.9855768159   116.8521838396     24.152     -4.593     27.115   -0.492       1 
133252.000    39.9855363122   116.8524999682     23.663     -4.385     26.908   -0.510       1 
133253.000    39.9854983155   116.8528138171     23.133     -4.062     26.709   -0.537       1 
133254.000    39.9854632295   116.8531255336     22.646     -3.780     26.528   -0.450       1 
133255.000    39.9854302952   116.8534353674     22.186     -3.544     26.434   -0.439       1 
133256.000    39.9853993950   116.8537453559     21.735     -3.355     26.605   -0.405       1 
133257.000    39.9853697782   116.8540593032     21.345     -3.219     27.024   -0.393       1 
133258.000    39.9853419421   116.8543781984     21.024     -2.992     27.449   -0.320       0 
133259.000    39.9853160160   116.8547017050     20.728     -2.767     27.813   -0.312       0 
133260.000    39.9852913550   116.8550296022     20.462     -2.754     28.197   -0.247       0 
133261.000    39.9852672365   116.8553607615     20.240     -2.615     28.270   -0.209       0 
133262.000    39.9852449787   116.8556902066     20.083     -2.319     27.980   -0.152       0 
133263.000    39.9852254005   116.8560184449     19.952     -2.072     28.159   -0.139       0 
133264.000    39.9852068748   116.8563497829     19.873     -2.000     28.448   -0.035       0 
133265.000    39.9851897594   116.8566844570     19.856     -1.766     28.719   -0.017       0 
133266.000    39.9851756889   116.8570219005     19.860     -1.402     28.925   -0.022       1 
133267.000    39.9851636545   116.8573621598     19.849     -1.247     29.176    0.002       1 
133268.000    39.9851532608   116.8577040007     19.846     -1.046     29.162   -0.021       1 
133269.000    39.9851446363   116.8580458092     19.854     -0.876     29.298    0.006       1 
133270.000    39.9851377751   116.8583902422     19.859     -0.604     29.534   -0.032       1 
133271.000    39.9851335085   116.8587375384     19.853     -0.336     29.780   -0.022       1 
133272.000    39.9851315873   116.8590877962     19.880     -0.098     30.048   -0.024       1 
133273.000    39.9851315575   116.8594411358     19.884      0.099     30.312    0.014       1 
133274.000    39.9851329828   116.8597975628     19.893      0.231     30.569    0.013       1 
133275.000    39.9851365752   116.8601568474     19.921      0.600     30.804    0.021       1 
133276.000    39.9851438750   116.8605189886     19.934      1.001     31.042   -0.002       1 
133277.000    39.9851541084   116.8608837880     19.959      1.235     31.293   -0.063       1 
133278.000    39.9851662836   116.8612518733     19.945      1.470     31.578    0.021       1 
133279.000    39.9851812512   116.8616230916     19.959      1.785     31.830   -0.005       1 
133280.000    39.9851982450   116.8619973534     19.990      1.997     32.110    0.034       1 
133281.000    39.9852176714   116.8623746104     20.018      2.310     32.339    0.008       1 
133282.000    39.9852397030   116.8627547651     20.045      2.552     32.636    0.015       0 
133283.000    39.9852637289   116.8631375345     20.108      2.752     32.784    0.069       0 
133284.000    39.9852899250   116.8635225491     20.202      3.024     32.974    0.150       1 
133285.000    39.9853177318   116.8639077695     20.325      3.216     32.688    0.118       1 
133286.000    39.9853474171   116.8642887336     20.463      3.410     32.477    0.170       1 
133287.000    39.9853792429   116.8646688258     20.634      3.658     32.434    0.189       1 
133288.000    39.9854126022   116.8650474061     20.839      3.753     32.229    0.203       1 
133289.000    39.9854465893   116.8654233362     21.070      3.851     31.948    0.220       1 
133290.000    39.9854816333   116.8657949981     21.285      3.928     31.554    0.194       1 
133291.000    39.9855169357   116.8661621120     21.534      3.925     31.173    0.259       1 
133292.000    39.9855521141   116.8665247263     21.761      3.903     30.787    0.173       1 
133293.000    39.9855873399   116.8668830243     21.997      3.911     30.404    0.267       1 
133294.000    39.9856225715   116.8672370852     22.234      3.882     30.070    0.244       1 
133295.000    39.9856576904   116.8675871964     22.485      3.913     29.733    0.272       2 
133296.000    39.9856928559   116.8679334878     22.746      3.930     29.449    0.214       2 
133297.000    39.9857278485   116.8682768146     22.960      3.835     29.183    0.229       2 
133298.000    39.9857621857   116.8686172079     23.198      3.776     28.959    0.230       2 
133299.000    39.9857960344   116.8689551940     23.453      3.742     28.814    0.221       2 
133300.000    39.9858295306   116.8692915141     23.662      3.713     28.660    0.192       2 
133301.000    39.9858629969   116.8696267029     23.900      3.739     28.622    0.264       2 
133302.000    39.9858979003   116.8699617710     24.137      3.945     28.637    0.254       2 
133303.000    39.9859328696   116.8702982194     24.377      3.855     28.837    0.208       2 
133304.000    39.9859675721   116.8706368108     24.603      3.861     29.014    0.192       2 
133305.000    39.9860022196   116.8709782185     24.789      3.858     29.301    0.174       2 
133306.000    39.9860368703   116.8713230503     24.936      3.828     29.584    0.078       2 
133307.000    39.9860710775   116.8716711606     25.086      3.748     29.837    0.336       2 
133308.000    39.9861053329   116.8720222818     25.179      3.822     30.094    0.072       2 
133309.000    39.9861400177   116.8723761448     25.160      3.854     30.343   -0.014       2 
133310.000    39.9861748417   116.8727322026     24.930      3.768     30.447   -0.100       2 
133311.000    39.9862097861   116.8730887116     24.864      3.925     30.445   -0.132       0 
133312.000    39.9862455109   116.8734457710     24.708      4.027     30.582   -0.177       1 
133313.000    39.9862819485   116.8738042126     24.542      4.024     30.624   -0.197       1 
133314.000    39.9863181583   116.8741629435     24.308      4.020     30.679   -0.206       1 
133315.000    39.9863544860   116.8745225399     24.099      4.066     30.738   -0.199       1 
133316.000    39.9863910391   116.8748830737     23.909      3.962     30.857   -0.167       1 
133317.000    39.9864264935   116.8752449252     23.682      3.935     30.901   -0.212       1 
133318.000    39.9864617609   116.8756069519     23.467      3.895     30.967   -0.175       1 
133319.000    39.9864969579   116.8759696263     23.258      3.905     30.937   -0.199       1 
