
   GPSTime         Latitude        Longitude      H-Ell      Vel-N      Vel-E    Vel-U       Q  
     (sec)            (Deg)            (Deg)        (m)      (m/s)      (m/s)    (m/s)          
199597.000    39.8837663923   116.4711672498     28.041     -8.690     -0.332   -0.049       1 
199598.000    39.8836893594   116.4711640425     28.014     -8.367     -0.255   -0.026       1 
199599.000    39.8836159052   116.4711615374     28.022     -7.899     -0.181    0.024       1 
199600.000    39.8835477760   116.4711600729     28.071     -7.203     -0.116    0.030       1 
199601.000    39.8834876308   116.4711581031     28.078     -6.122     -0.178   -0.062       1 
199602.000    39.8834374539   116.4711559797     28.109     -5.023     -0.167    0.031       1 
199603.000    39.8833965517   116.4711547393     28.127     -3.977     -0.078    0.010       1 
199604.000    39.8833672756   116.4711543442     28.142     -2.459     -0.034   -0.001       1 
199605.000    39.8833522251   116.4711541611     28.148     -0.986     -0.009   -0.003       1 
199606.000    39.8833481127   116.4711541101     28.148      0.021     -0.000   -0.004       1 
199607.000    39.8833481938   116.4711541190     28.150      0.000      0.001    0.001       1 
199608.000    39.8833481992   116.4711541233     28.150      0.000      0.001    0.001       1 
199609.000    39.8833482007   116.4711541197     28.149      0.001     -0.001   -0.002       1 
199610.000    39.8833481997   116.4711541168     28.148      0.001     -0.001   -0.002       1 
199611.000    39.8833481995   116.4711541153     28.147     -0.000     -0.000   -0.000       1 
199612.000    39.8833481974   116.4711541179     28.146     -0.001      0.001   -0.001       1 
199613.000    39.8833481955   116.4711541185     28.145      0.000      0.001   -0.002       1 
199614.000    39.8833481958   116.4711541175     28.145      0.000     -0.000   -0.001       1 
199615.000    39.8833482000   116.4711541144     28.144      0.000      0.001   -0.001       1 
199616.000    39.8833482056   116.4711541147     28.143      0.001      0.001   -0.003       1 
199617.000    39.8833482094   116.4711541164     28.142      0.001      0.002   -0.003       1 
199618.000    39.8833482099   116.4711541126     28.141      0.001      0.002   -0.001       1 
199619.000    39.8833481935   116.4711541125     28.141      0.002     -0.001    0.000       1 
199620.000    39.8833481918   116.4711541133     28.142     -0.000      0.000    0.002       1 
199621.000    39.8833476450   116.4711541120     28.143     -0.165     -0.001    0.002       1 
199622.000    39.8833448113   116.4711540849     28.144     -0.501     -0.008    0.000       1 
199623.000    39.8833384354   116.4711540358     28.143     -0.896     -0.009   -0.000       1 
199624.000    39.8833282366   116.4711538248     28.152     -1.441     -0.016    0.017       1 
199625.000    39.8833129381   116.4711537326     28.160     -1.831     -0.013    0.007       1 
199626.000    39.8832963388   116.4711535890     28.163     -1.813     -0.006   -0.000       1 
199627.000    39.8832807805   116.4711536726     28.165     -1.618     -0.006   -0.006       1 
199628.000    39.8832675837   116.4711539276     28.174     -1.274      0.017    0.008       1 
199629.000    39.8832571211   116.4711542498     28.178     -1.085      0.017   -0.005       1 
199630.000    39.8832483880   116.4711545751     28.181     -0.695      0.022    0.011       1 
199631.000    39.8832451094   116.4711547202     28.185     -0.167      0.006    0.003       1 
199632.000    39.8832422642   116.4711548560     28.188     -0.503      0.016    0.004       1 
199633.000    39.8832331844   116.4711552848     28.196     -1.633      0.052    0.008       1 
199634.000    39.8832132477   116.4711566828     28.203     -2.706      0.154    0.025       1 
199635.000    39.8831842259   116.4711607293     28.221     -3.641      0.404    0.028       1 
199636.000    39.8831484431   116.4711701225     28.247     -4.211      0.984    0.031       1 
199637.000    39.8831074996   116.4711948514     28.261     -4.605      2.516   -0.002       1 
199638.000    39.8830666738   116.4712390931     28.272     -4.325      4.187    0.003       1 
199639.000    39.8830296736   116.4712986973     28.274     -3.915      5.392   -0.037       1 
199640.000    39.8829982977   116.4713717417     28.236     -3.036      6.517   -0.048       1 
199641.000    39.8829785651   116.4714566699     28.184     -1.484      7.465   -0.067       1 
199642.000    39.8829713019   116.4715518367     28.134     -0.415      8.437   -0.013       1 
199643.000    39.8829698079   116.4716566614     28.151     -0.032      9.335    0.020       1 
199644.000    39.8829705461   116.4717712167     28.158      0.150     10.235   -0.001       1 
199645.000    39.8829724201   116.4718967637     28.187      0.236     11.238    0.036       1 
199646.000    39.8829746610   116.4720338681     28.238      0.278     12.217    0.050       1 
199647.000    39.8829779710   116.4721807354     28.277      0.458     12.759    0.034       1 
199648.000    39.8829821892   116.4723315438     28.315      0.471     13.079    0.057       1 
199649.000    39.8829867389   116.4724873025     28.358      0.550     13.515    0.023       1 
199650.000    39.8829917112   116.4726448766     28.400      0.478     13.408    0.058       1 
199651.000    39.8829942222   116.4728028106     28.455      0.104     13.776    0.053       1 
199652.000    39.8829932178   116.4729673503     28.491     -0.308     14.451    0.015       1 
199653.000    39.8829889051   116.4731403191     28.502     -0.553     15.192    0.002       1 
199654.000    39.8829842364   116.4733222833     28.505     -0.495     15.946   -0.015       1 
199655.000    39.8829801199   116.4735116818     28.471     -0.407     16.288    0.023       1 
199656.000    39.8829772486   116.4737013025     28.452     -0.250     16.070   -0.046       1 
199657.000    39.8829754987   116.4738874366     28.436     -0.192     15.828   -0.002       1 
199658.000    39.8829737022   116.4740728857     28.394     -0.207     15.951   -0.030       1 
199659.000    39.8829720578   116.4742590708     28.370     -0.136     15.815   -0.017       1 
199660.000    39.8829712763   116.4744411645     28.342     -0.074     15.298   -0.070       1 
199661.000    39.8829708891   116.4746167680     28.310      0.000     14.753   -0.043       1 
199662.000    39.8829712200   116.4747879446     28.279      0.046     14.535   -0.038       1 
199663.000    39.8829720988   116.4749567425     28.249      0.120     14.335   -0.026       1 
199664.000    39.8829731108   116.4751232037     28.227      0.074     14.158   -0.028       1 
199665.000    39.8829736348   116.4752877506     28.232      0.064     14.048    0.016       1 
199666.000    39.8829741252   116.4754512260     28.225      0.042     13.920    0.027       1 
199667.000    39.8829741293   116.4756144770     28.254     -0.071     14.128    0.027       1 
199668.000    39.8829734549   116.4757821932     28.294     -0.070     14.556   -0.053       1 
199669.000    39.8829728795   116.4759518194     28.306     -0.050     14.395    0.015       1 
199670.000    39.8829723117   116.4761191490     28.331     -0.063     14.351    0.002       1 
199671.000    39.8829714365   116.4762886833     28.348     -0.110     14.657   -0.045       1 
199672.000    39.8829702737   116.4764611377     28.370     -0.117     14.719    0.035       1 
199673.000    39.8829693531   116.4766315130     28.404     -0.067     14.424    0.040       1 
199674.000    39.8829690409   116.4767985601     28.416      0.063     14.068    0.028       1 
199675.000    39.8829703308   116.4769612695     28.444      0.100     13.771    0.048       1 
199676.000    39.8829704428   116.4771209107     28.476     -0.029     13.586    0.022       1 
199677.000    39.8829698364   116.4772816067     28.462     -0.030     13.936   -0.031       1 
199678.000    39.8829698949   116.4774471657     28.442      0.032     14.399   -0.027       1 
199679.000    39.8829700106   116.4776175834     28.424      0.001     14.630   -0.016       1 
199680.000    39.8829697769   116.4777873738     28.417     -0.048     14.413   -0.009       1 
199681.000    39.8829692744   116.4779547141     28.378     -0.070     14.231   -0.050       1 
199682.000    39.8829686683   116.4781197042     28.352     -0.055     13.961   -0.022       1 
199683.000    39.8829682818   116.4782801488     28.321     -0.049     13.449    0.006       1 
199684.000    39.8829681165   116.4784331764     28.289     -0.020     12.746   -0.025       1 
199685.000    39.8829678849   116.4785793763     28.257     -0.043     12.347   -0.041       1 
199686.000    39.8829676130   116.4787217918     28.232      0.010     12.049   -0.031       1 
199687.000    39.8829680074   116.4788614073     28.198      0.044     11.862   -0.014       1 
199688.000    39.8829680332   116.4789991722     28.188     -0.040     11.716   -0.022       1 
199689.000    39.8829675215   116.4791356806     28.142     -0.071     11.662   -0.034       1 
199690.000    39.8829669396   116.4792731506     28.087     -0.064     11.794   -0.076       1 
199691.000    39.8829667990   116.4794107619     28.035      0.022     11.772   -0.028       1 
199692.000    39.8829670131   116.4795506400     27.978      0.019     12.249   -0.061       1 
199693.000    39.8829667743   116.4796972723     27.910     -0.067     12.778   -0.041       1 
199694.000    39.8829658159   116.4798463634     27.822     -0.133     12.676   -0.094       1 
199695.000    39.8829643825   116.4799907222     27.730     -0.172     11.914   -0.064       1 
199696.000    39.8829628252   116.4801244559     27.663     -0.174     10.897   -0.050       1 
199697.000    39.8829596814   116.4802443221     27.584     -0.540      9.658   -0.093       1 
199698.000    39.8829524786   116.4803489438     27.548     -1.036      8.514   -0.064       1 
199699.000    39.8829404983   116.4804465639     27.482     -1.552      8.366   -0.038       1 
199700.000    39.8829234413   116.4805426608     27.406     -2.164      8.243   -0.090       1 
199701.000    39.8829009276   116.4806370134     27.321     -2.729      8.077   -0.070       1 
199702.000    39.8828746171   116.4807298268     27.264     -3.036      7.925   -0.047       1 
199703.000    39.8828469385   116.4808219773     27.257     -3.117      7.963   -0.001       1 
199704.000    39.8828179538   116.4809179778     27.367     -3.334      8.508    0.134       1 
199705.000    39.8827865303   116.4810202204     27.560     -3.602      8.918    0.200       1 
199706.000    39.8827517204   116.4811277291     27.830     -4.122      9.629    0.311       1 
199707.000    39.8827124405   116.4812445184     28.198     -4.561     10.344    0.376       1 
199708.000    39.8826710408   116.4813653975     28.588     -4.563     10.203    0.383       1 
199709.000    39.8826303783   116.4814800617     28.959     -4.453      9.450    0.326       1 
199710.000    39.8825914910   116.4815851239     29.303     -4.171      8.576    0.346       1 
199711.000    39.8825550141   116.4816813310     29.633     -3.827      7.762    0.317       1 
199712.000    39.8825224042   116.4817670984     29.897     -3.461      6.989    0.250       1 
199713.000    39.8824911660   116.4818461769     30.141     -3.476      6.589    0.221       1 
199714.000    39.8824593736   116.4819199028     30.399     -3.582      6.144    0.278       1 
199715.000    39.8824263516   116.4819892172     30.709     -3.709      5.814    0.345       1 
199716.000    39.8823929631   116.4820557321     30.994     -3.728      5.659    0.235       1 
199717.000    39.8823582794   116.4821221033     31.235     -3.948      5.793    0.191       1 
199718.000    39.8823211574   116.4821910753     31.374     -4.349      6.049    0.147       1 
199719.000    39.8822797861   116.4822634860     31.504     -4.862      6.417    0.108       1 
199720.000    39.8822330365   116.4823404871     31.528     -5.509      6.844   -0.071       1 
199721.000    39.8821800352   116.4824226625     31.400     -6.226      7.316   -0.210       1 
199722.000    39.8821208088   116.4825113800     31.137     -6.856      7.834   -0.310       1 
199723.000    39.8820581442   116.4826033665     30.814     -7.012      7.910   -0.310       1 
199724.000    39.8819949969   116.4826961168     30.479     -6.977      7.932   -0.342       1 
199725.000    39.8819328514   116.4827884836     30.126     -6.826      7.834   -0.365       1 
199726.000    39.8818722002   116.4828781001     29.779     -6.685      7.474   -0.305       1 
199727.000    39.8818111443   116.4829600836     29.521     -6.902      6.682   -0.220       1 
199728.000    39.8817478182   116.4830302157     29.342     -7.154      5.618   -0.160       1 
199729.000    39.8816821096   116.4830879767     29.260     -7.519      4.676   -0.001       1 
199730.000    39.8816137705   116.4831339188     29.253     -7.729      3.603    0.039       1 
199731.000    39.8815437282   116.4831681081     29.291     -7.851      2.636    0.060       1 
199732.000    39.8814736222   116.4831936942     29.369     -7.898      2.015    0.119       1 
199733.000    39.8814009172   116.4832121464     29.482     -8.397      1.436    0.119       1 
199734.000    39.8813226060   116.4832255990     29.620     -9.118      1.065    0.140       1 
199735.000    39.8812366485   116.4832349263     29.765     -9.996      0.687    0.125       1 
199736.000    39.8811425811   116.4832423659     29.908    -10.909      0.657    0.150       1 
199737.000    39.8810403588   116.4832497623     30.080    -11.816      0.621    0.162       1 
199738.000    39.8809297693   116.4832560543     30.243    -12.755      0.496    0.185       1 
199739.000    39.8808111400   116.4832609541     30.433    -13.553      0.370    0.219       1 
199740.000    39.8806864011   116.4832643355     30.703    -14.145      0.252    0.286       1 
199741.000    39.8805573940   116.4832664399     31.117    -14.471      0.191    0.418       1 
199742.000    39.8804255120   116.4832682646     31.447    -14.840      0.124    0.372       1 
199743.000    39.8802926974   116.4832696220     31.920    -14.566      0.101    0.468       1 
199744.000    39.8801638768   116.4832707191     32.351    -14.058      0.104    0.396       1 
199745.000    39.8800393817   116.4832717344     32.773    -13.576      0.076    0.413       1 
199746.000    39.8799195371   116.4832724282     33.259    -13.039      0.025    0.507       1 
199747.000    39.8798042310   116.4832726143     33.679    -12.547     -0.033    0.394       1 
199748.000    39.8796933675   116.4832718909     34.070    -12.077     -0.087    0.385       1 
199749.000    39.8795867292   116.4832713379     34.459    -11.605     -0.025    0.376       1 
199750.000    39.8794843445   116.4832718810     34.841    -11.078      0.138    0.373       1 
199751.000    39.8793888837   116.4832783209     35.174     -9.938      0.833    0.325       1 
199752.000    39.8793057462   116.4832973429     35.503     -8.370      2.000    0.328       1 
199753.000    39.8792376696   116.4833310994     35.795     -6.711      3.159    0.268       1 
199754.000    39.8791833985   116.4833785557     36.032     -5.322      4.200    0.193       1 
199755.000    39.8791409625   116.4834357583     36.208     -4.105      4.926    0.130       1 
199756.000    39.8791097845   116.4834997632     36.326     -2.893      5.427    0.108       1 
199757.000    39.8790896203   116.4835682950     36.413     -1.743      5.729    0.078       1 
199758.000    39.8790792040   116.4836382797     36.462     -0.702      5.796    0.050       1 
199759.000    39.8790785610   116.4837089249     36.468      0.402      5.885   -0.027       1 
199760.000    39.8790882855   116.4837806188     36.437      1.568      6.017   -0.045       1 
199761.000    39.8791092360   116.4838530397     36.353      2.918      6.023   -0.131       1 
199762.000    39.8791422752   116.4839233802     36.223      4.178      5.734   -0.125       1 
199763.000    39.8791875250   116.4839874049     36.022      5.698      4.988   -0.215       1 
199764.000    39.8792459479   116.4840389558     35.755      6.996      3.589   -0.269       1 
199765.000    39.8793138983   116.4840715921     35.465      7.884      1.916   -0.304       1 
199766.000    39.8793872156   116.4840850627     35.175      8.277      0.494   -0.291       1 
199767.000    39.8794624682   116.4840872273     34.918      8.425     -0.015   -0.274       1 
199768.000    39.8795388827   116.4840865679     34.633      8.560     -0.082   -0.293       1 
199769.000    39.8796166059   116.4840860917     34.342      8.692     -0.020   -0.270       1 
199770.000    39.8796964573   116.4840864744     34.060      9.099      0.052   -0.282       1 
199771.000    39.8797808113   116.4840870250     33.765      9.626      0.018   -0.349       1 
199772.000    39.8798690296   116.4840874847     33.429      9.909      0.068   -0.307       1 
199773.000    39.8799592660   116.4840888780     33.075     10.118      0.163   -0.443       1 
199774.000    39.8800503724   116.4840909531     32.748     10.084      0.205   -0.272       1 
199775.000    39.8801405193   116.4840926234     32.457      9.828      0.060   -0.336       1 
199776.000    39.8802264285   116.4840936217     32.160      9.286      0.110   -0.295       1 
199777.000    39.8803074988   116.4840953985     31.877      8.775      0.189   -0.280       1 
199778.000    39.8803850678   116.4840981163     31.613      8.479      0.240   -0.240       1 
199779.000    39.8804611946   116.4841006600     31.401      8.420      0.200   -0.183       1 
199780.000    39.8805371772   116.4841024213     31.167      8.463      0.135   -0.274       1 
199781.000    39.8806140697   116.4841034849     30.835      8.609      0.066   -0.353       1 
199782.000    39.8806920698   116.4841040735     30.544      8.698      0.043   -0.230       1 
199783.000    39.8807707388   116.4841048936     30.335      8.758      0.084   -0.211       1 
199784.000    39.8808504366   116.4841054311     30.123      9.001      0.021   -0.188       1 
199785.000    39.8809347183   116.4841048136     29.941      9.743     -0.106   -0.175       1 
199786.000    39.8810258849   116.4841034927     29.773     10.497     -0.100   -0.165       1 
199787.000    39.8811235618   116.4841023958     29.630     11.215     -0.092   -0.121       1 
199788.000    39.8812281714   116.4841008701     29.514     11.990     -0.238   -0.110       1 
199789.000    39.8813397440   116.4840962574     29.396     12.745     -0.599   -0.114       1 
199790.000    39.8814564474   116.4840874851     29.345     13.085     -0.928   -0.169       0 
199791.000    39.8815742245   116.4840764331     29.222     13.175     -0.954   -0.149       0 
199792.000    39.8816929135   116.4840647389     29.040     13.153     -0.999   -0.142       0 
199793.000    39.8818109293   116.4840543891     28.869     13.002     -1.068   -0.059       0 
199794.000    39.8819265549   116.4840395197     28.815     12.686     -1.268   -0.090       0 
199795.000    39.8820398122   116.4840248817     28.677     12.508     -1.184   -0.195       0 
199796.000    39.8821518327   116.4840116323     28.508     12.424     -1.078   -0.132       0 
199797.000    39.8822653444   116.4839998711     28.386     12.911     -0.904   -0.156       0 
199798.000    39.8823848709   116.4839906881     28.227     13.667     -0.711   -0.197       0 
199799.000    39.8825106926   116.4839829194     28.056     14.120     -0.577   -0.165       1 
199800.000    39.8826378195   116.4839776676     27.886     14.062     -0.292   -0.149       1 
