
   GPSTime         Latitude        Longitude      H-Ell      Vel-N      Vel-E    Vel-U       Q  
     (sec)            (Deg)            (Deg)        (m)      (m/s)      (m/s)    (m/s)          
 23157.000    39.7193239736   116.3384586070     29.746    -12.276     -2.409   -0.086       1 
 23158.000    39.7192143830   116.3384279761     29.631    -12.121     -2.568   -0.123       1 
 23159.000    39.7191055160   116.3384003816     29.579    -12.086     -2.251   -0.030       1 
 23160.000    39.7189957084   116.3383746834     29.549    -12.385     -2.230   -0.041       1 
 23161.000    39.7188815333   116.3383475406     29.524    -12.982     -2.420   -0.021       1 
 23162.000    39.7187621282   116.3383176402     29.498    -13.538     -2.658   -0.010       1 
 23163.000    39.7186375385   116.3382851540     29.495    -14.146     -2.872    0.005       1 
 23164.000    39.7185084130   116.3382508845     29.487    -14.376     -2.940   -0.046       1 
 23165.000    39.7183798836   116.3382184577     29.486    -14.150     -2.678    0.010       1 
 23166.000    39.7182534366   116.3381869377     29.498    -13.943     -2.661    0.036       1 
 23167.000    39.7181288117   116.3381577557     29.551    -13.734     -2.380    0.062       1 
 23168.000    39.7180065260   116.3381299340     29.601    -13.431     -2.382    0.066       1 
 23169.000    39.7178874082   116.3381016306     29.673    -12.990     -2.443    0.073       1 
 23170.000    39.7177733376   116.3380735497     29.748    -12.256     -2.327    0.059       0 
 23171.000    39.7176674551   116.3380481678     29.798    -11.250     -2.018    0.036       1 
 23172.000    39.7175698337   116.3380258888     29.864    -10.513     -1.819    0.073       1 
 23173.000    39.7174774919   116.3380054358     29.915    -10.053     -1.710    0.032       1 
 23174.000    39.7173884220   116.3379856140     29.953     -9.711     -1.705   -0.007       1 
 23175.000    39.7173025721   116.3379658385     29.980     -9.282     -1.671    0.043       1 
 23176.000    39.7172214184   116.3379465018     30.000     -8.739     -1.611   -0.020       1 
 23177.000    39.7171454490   116.3379279883     29.997     -8.057     -1.530   -0.010       1 
 23178.000    39.7170769848   116.3379108466     29.997     -7.186     -1.399   -0.009       1 
 23179.000    39.7170143924   116.3378951362     30.001     -6.746     -1.264    0.040       1 
 23180.000    39.7169572753   116.3378818251     30.041     -5.773     -1.031    0.029       1 
 23181.000    39.7169099664   116.3378706997     30.047     -4.759     -0.850    0.024       1 
 23182.000    39.7168702465   116.3378614866     30.065     -4.270     -0.766   -0.045       1 
 23183.000    39.7168320559   116.3378522972     30.058     -4.233     -0.794    0.014       1 
 23184.000    39.7167940000   116.3378423279     30.064     -4.217     -0.863    0.008       1 
 23185.000    39.7167564702   116.3378319161     30.057     -4.123     -0.869   -0.021       0 
 23186.000    39.7167193188   116.3378213212     30.061     -4.256     -0.940    0.003       0 
 23187.000    39.7166778646   116.3378094902     30.075     -4.985     -1.093   -0.023       0 
 23188.000    39.7166284103   116.3377950923     30.078     -5.968     -1.368    0.024       0 
 23189.000    39.7165703215   116.3377770924     30.084     -6.911     -1.689    0.046       0 
 23190.000    39.7165037561   116.3377547324     30.114     -7.893     -2.053    0.000       1 
 23191.000    39.7164279357   116.3377295888     30.127     -8.952     -2.250    0.092       1 
 23192.000    39.7163420938   116.3377025397     30.133    -10.111     -2.411   -0.074       1 
 23193.000    39.7162454365   116.3376747138     30.098    -11.339     -2.385   -0.046       1 
 23194.000    39.7161381803   116.3376478046     30.117    -12.451     -2.326    0.024       1 
 23195.000    39.7160217836   116.3376186440     30.130    -13.381     -2.706    0.005       1 
 23196.000    39.7158989514   116.3375819228     30.175    -13.771     -3.473    0.056       1 
 23197.000    39.7157736593   116.3375372315     30.211    -14.138     -3.980    0.086       1 
 23198.000    39.7156436596   116.3374900015     30.276    -14.750     -4.138    0.065       1 
 23199.000    39.7155079676   116.3374402045     30.349    -15.370     -4.434    0.134       1 
 23200.000    39.7153679398   116.3373850292     30.513    -15.731     -4.969    0.187       1 
 23201.000    39.7152248334   116.3373236577     30.701    -15.998     -5.456    0.207       1 
 23202.000    39.7150818112   116.3372573252     30.901    -15.696     -5.822    0.189       1 
 23203.000    39.7149415003   116.3371871320     31.108    -15.569     -6.160    0.217       1 
 23204.000    39.7148001572   116.3371128483     31.343    -15.841     -6.531    0.245       1 
 23205.000    39.7146559224   116.3370337499     31.609    -16.213     -7.005    0.276       1 
 23206.000    39.7145089481   116.3369479898     31.912    -16.440     -7.625    0.363       1 
 23207.000    39.7143598896   116.3368553267     32.253    -16.684     -8.167    0.337       1 
 23208.000    39.7142092224   116.3367572744     32.612    -16.712     -8.573    0.382       1 
 23209.000    39.7140594819   116.3366542728     32.998    -16.566     -9.042    0.412       1 
 23210.000    39.7139110665   116.3365457661     33.402    -16.404     -9.470    0.435       1 
 23211.000    39.7137643528   116.3364332793     33.838    -16.185     -9.759    0.430       1 
 23212.000    39.7136191273   116.3363174197     34.256    -16.083    -10.065    0.431       1 
 23213.000    39.7134749922   116.3361983581     34.704    -15.918    -10.316    0.458       1 
 23214.000    39.7133323355   116.3360761414     35.175    -15.819    -10.630    0.484       1 
 23215.000    39.7131895359   116.3359492830     35.667    -15.910    -11.087    0.489       1 
 23216.000    39.7130469353   116.3358183800     36.151    -15.697    -11.284    0.489       1 
 23217.000    39.7129068335   116.3356857345     36.608    -15.454    -11.432    0.449       1 
 23218.000    39.7127682916   116.3355509073     37.026    -15.364    -11.671    0.414       1 
 23219.000    39.7126293937   116.3354126583     37.432    -15.510    -12.026    0.377       1 
 23220.000    39.7124885554   116.3352698850     37.801    -15.767    -12.443    0.370       1 
 23221.000    39.7123463074   116.3351226028     38.129    -15.697    -12.664    0.293       1 
 23222.000    39.7122067304   116.3349752188     38.424    -15.331    -12.593    0.289       1 
 23223.000    39.7120690135   116.3348282332     38.690    -15.275    -12.629    0.232       1 
 23224.000    39.7119315783   116.3346809279     38.912    -15.205    -12.615    0.190       1 
 23225.000    39.7117947717   116.3345336120     39.090    -15.225    -12.663    0.209       1 
 23226.000    39.7116569622   116.3343854306     39.325    -15.366    -12.732    0.198       1 
 23227.000    39.7115182726   116.3342371081     39.462    -15.409    -12.703    0.104       1 
 23228.000    39.7113793615   116.3340890930     39.554    -15.418    -12.665    0.092       1 
 23229.000    39.7112407564   116.3339414875     39.611    -15.378    -12.678    0.008       1 
 23230.000    39.7111018683   116.3337924582     39.606    -15.472    -12.875   -0.027       1 
 23231.000    39.7109625782   116.3336428858     39.567    -15.420    -12.729   -0.064       1 
 23232.000    39.7108241548   116.3334954502     39.451    -15.290    -12.599   -0.214       1 
 23233.000    39.7106865949   116.3333487343     39.280    -15.230    -12.570   -0.145       0 
 23234.000    39.7105497279   116.3332022607     39.134    -15.211    -12.596   -0.144       0 
 23235.000    39.7104115251   116.3330536709     38.974    -15.491    -12.894   -0.186       0 
 23236.000    39.7102708649   116.3329020126     38.769    -15.742    -13.103   -0.231       0 
 23237.000    39.7101284130   116.3327488909     38.528    -15.871    -13.137   -0.260       0 
 23238.000    39.7099853409   116.3325962020     38.307    -15.887    -13.067   -0.321       0 
 23239.000    39.7098424479   116.3324442967     37.949    -15.813    -12.998   -0.286       0 
 23240.000    39.7097004883   116.3322923933     37.606    -15.720    -13.036   -0.354       0 
 23241.000    39.7095594179   116.3321400744     37.228    -15.617    -13.055   -0.390       1 
 23242.000    39.7094189715   116.3319881689     36.833    -15.580    -12.998   -0.405       1 
 23243.000    39.7092785404   116.3318366849     36.433    -15.618    -12.984   -0.401       1 
 23244.000    39.7091377065   116.3316852321     36.018    -15.657    -12.985   -0.346       1 
 23245.000    39.7089968750   116.3315338128     35.613    -15.611    -12.996   -0.422       1 
 23246.000    39.7088566378   116.3313820461     35.193    -15.537    -13.037   -0.419       1 
 23247.000    39.7087162388   116.3312293552     34.784    -15.672    -13.183   -0.428       1 
 23248.000    39.7085735653   116.3310744816     34.365    -16.030    -13.395   -0.393       1 
 23249.000    39.7084274267   116.3309167770     33.963    -16.416    -13.648   -0.406       0 
 23250.000    39.7082778842   116.3307560876     33.565    -16.776    -13.894   -0.359       1 
 23251.000    39.7081254185   116.3305929814     33.197    -17.046    -14.080   -0.346       1 
 23252.000    39.7079705126   116.3304278701     32.853    -17.337    -14.255   -0.287       1 
 23253.000    39.7078131333   116.3302601478     32.535    -17.615    -14.507   -0.312       1 
 23254.000    39.7076541894   116.3300904800     32.213    -17.636    -14.545   -0.301       1 
 23255.000    39.7074961053   116.3299214766     31.898    -17.472    -14.446   -0.293       1 
 23256.000    39.7073397116   116.3297538321     31.627    -17.283    -14.309   -0.263       1 
 23257.000    39.7071850010   116.3295877100     31.373    -17.091    -14.189   -0.227       1 
 23258.000    39.7070315112   116.3294226392     31.138    -16.998    -14.123   -0.182       1 
 23259.000    39.7068789309   116.3292586911     30.947    -16.891    -13.999   -0.195       0 
 23260.000    39.7067272382   116.3290962704     30.768    -16.793    -13.860   -0.165       0 
 23261.000    39.7065764816   116.3289354918     30.617    -16.678    -13.733   -0.141       0 
 23262.000    39.7064268249   116.3287763357     30.491    -16.557    -13.563   -0.087       0 
 23263.000    39.7062784442   116.3286193011     30.395    -16.392    -13.366   -0.096       1 
 23264.000    39.7061317699   116.3284647850     30.325    -16.160    -13.125   -0.069       1 
 23265.000    39.7059872045   116.3283132055     30.267    -15.926    -12.867   -0.039       1 
 23266.000    39.7058450725   116.3281642730     30.223    -15.630    -12.668   -0.040       1 
 23267.000    39.7057055930   116.3280178063     30.204    -15.328    -12.445   -0.001       1 
 23268.000    39.7055690216   116.3278742719     30.204    -15.007    -12.162    0.011       1 
 23269.000    39.7054349319   116.3277344871     30.210    -14.768    -11.825    0.006       1 
 23270.000    39.7053025209   116.3275983379     30.223    -14.646    -11.576    0.023       1 
 23271.000    39.7051711565   116.3274644871     30.240    -14.518    -11.392    0.020       1 
 23272.000    39.7050408275   116.3273329596     30.253    -14.419    -11.174    0.026       1 
 23273.000    39.7049112876   116.3272040736     30.272    -14.331    -10.950    0.024       1 
 23274.000    39.7047826340   116.3270777248     30.290    -14.232    -10.730    0.017       1 
 23275.000    39.7046548406   116.3269540339     30.307    -14.140    -10.497    0.027       1 
 23276.000    39.7045278256   116.3268330937     30.324    -14.061    -10.265    0.008       1 
 23277.000    39.7044012543   116.3267144232     30.339    -14.046    -10.140    0.018       1 
 23278.000    39.7042747088   116.3265966105     30.354    -14.079    -10.097    0.018       1 
 23279.000    39.7041468626   116.3264788595     30.388    -14.387    -10.140    0.073       1 
 23280.000    39.7040153278   116.3263609368     30.436    -14.768    -10.099    0.052       1 
 23281.000    39.7038820101   116.3262451501     30.494    -14.785     -9.784    0.076       0 
 23282.000    39.7037489267   116.3261326186     30.558    -14.819     -9.586    0.079       0 
 23283.000    39.7036138794   116.3260209561     30.621    -15.157     -9.603    0.083       0 
 23284.000    39.7034768162   116.3259100794     30.682    -15.201     -9.419    0.030       0 
 23285.000    39.7033404456   116.3258011721     30.698    -15.099     -9.246    0.063       1 
 23286.000    39.7032035455   116.3256962810     30.777    -15.340     -8.904    0.017       1 
 23287.000    39.7030636497   116.3255922414     30.822    -15.723     -9.025    0.068       1 
 23288.000    39.7029199051   116.3254867559     30.856    -16.227     -9.070    0.023       1 
 23289.000    39.7027704563   116.3253832004     30.837    -16.938     -8.755   -0.039       1 
 23290.000    39.7026149033   116.3252827095     30.814    -17.544     -8.629   -0.013       1 
 23291.000    39.7024543451   116.3251814862     30.771    -18.114     -8.723   -0.043       1 
 23292.000    39.7022887534   116.3250793366     30.723    -18.632     -8.849   -0.026       1 
 23293.000    39.7021189679   116.3249736741     30.687    -19.088     -9.186   -0.055       1 
 23294.000    39.7019447572   116.3248658123     30.658    -19.603     -9.291   -0.025       1 
 23295.000    39.7017657429   116.3247575630     30.640    -20.127     -9.277   -0.028       1 
 23296.000    39.7015829245   116.3246496393     30.631    -20.448     -9.267    0.004       1 
 23297.000    39.7013990680   116.3245416168     30.642    -20.333     -9.225    0.011       1 
 23298.000    39.7012169617   116.3244359705     30.632    -20.122     -8.862   -0.001       1 
 23299.000    39.7010360002   116.3243364495     30.618    -20.071     -8.283   -0.032       1 
 23300.000    39.7008537589   116.3242421357     30.609    -20.432     -7.976   -0.009       1 
 23301.000    39.7006678319   116.3241512379     30.585    -20.825     -7.659   -0.011       1 
 23302.000    39.7004786585   116.3240635444     30.566    -21.181     -7.416   -0.033       1 
 23303.000    39.7002861990   116.3239784342     30.506    -21.491     -7.195   -0.023       0 
 23304.000    39.7000929182   116.3238973895     30.498    -21.382     -6.755   -0.030       0 
 23305.000    39.6999012348   116.3238217481     30.463    -21.175     -6.270   -0.035       0 
 23306.000    39.6997110690   116.3237523010     30.450    -21.051     -5.717   -0.010       0 
 23307.000    39.6995220115   116.3236886551     30.418    -20.920     -5.281   -0.052       0 
 23308.000    39.6993345449   116.3236283628     30.384    -20.700     -5.130   -0.078       0 
 23309.000    39.6991489816   116.3235698856     30.348    -20.513     -4.894   -0.029       0 
 23310.000    39.6989649029   116.3235153180     30.310    -20.370     -4.501   -0.022       0 
 23311.000    39.6987820913   116.3234658168     30.267    -20.219     -4.063   -0.051       0 
 23312.000    39.6986007035   116.3234211181     30.239    -20.059     -3.671    0.007       0 
 23313.000    39.6984209287   116.3233802747     30.200    -19.844     -3.415   -0.058       0 
 23314.000    39.6982436266   116.3233401350     30.130    -19.490     -3.426   -0.074       0 
 23315.000    39.6980716264   116.3233005119     30.065    -18.620     -3.351   -0.080       0 
 23316.000    39.6979089908   116.3232608459     29.998    -17.502     -3.421   -0.108       0 
 23317.000    39.6977568155   116.3232189679     29.918    -16.234     -3.728   -0.126       0 
 23318.000    39.6976174922   116.3231711593     29.800    -14.709     -4.287   -0.172       0 
 23319.000    39.6974925928   116.3231168952     29.653    -12.978     -4.819   -0.138       1 
 23320.000    39.6973847506   116.3230537848     29.552    -11.146     -5.765   -0.060       1 
 23321.000    39.6972928124   116.3229743598     29.582     -9.482     -7.371    0.095       1 
 23322.000    39.6972159855   116.3228757573     29.638     -7.745     -8.931    0.066       1 
 23323.000    39.6971554656   116.3227621680     29.728     -5.999    -10.025    0.135       1 
 23324.000    39.6971085453   116.3226382569     29.899     -4.629    -10.988    0.207       1 
 23325.000    39.6970753948   116.3225030362     30.153     -2.936    -11.878    0.306       1 
 23326.000    39.6970568322   116.3223589885     30.505     -1.326    -12.567    0.399       1 
 23327.000    39.6970558213   116.3222094486     30.921      0.865    -12.694    0.416       1 
 23328.000    39.6970739533   116.3220626311     31.341      2.861    -12.207    0.411       1 
 23329.000    39.6971092223   116.3219232980     31.762      4.728    -11.475    0.426       1 
 23330.000    39.6971607200   116.3217938397     32.181      6.469    -10.538    0.415       1 
 23331.000    39.6972275390   116.3216763914     32.607      8.162     -9.453    0.418       1 
 23332.000    39.6973083824   116.3215732863     33.030      9.541     -8.155    0.453       1 
 23333.000    39.6974006352   116.3214858798     33.456     10.818     -6.680    0.424       1 
 23334.000    39.6975035519   116.3214183954     33.863     11.811     -4.810    0.431       1 
 23335.000    39.6976126318   116.3213741368     34.285     12.258     -2.796    0.439       1 
 23336.000    39.6977244822   116.3213524625     34.702     12.478     -0.852    0.409       1 
 23337.000    39.6978359673   116.3213540559     35.084     12.201      1.123    0.364       1 
 23338.000    39.6979433536   116.3213780529     35.427     11.658      2.980    0.319       1 
 23339.000    39.6980455234   116.3214221900     35.727     11.122      4.627    0.270       1 
 23340.000    39.6981426152   116.3214859624     35.988     10.508      6.313    0.234       1 
 23341.000    39.6982322742   116.3215683774     36.203      9.455      7.834    0.206       1 
 23342.000    39.6983110972   116.3216678698     36.368      8.244      9.278    0.156       1 
 23343.000    39.6983799638   116.3217843890     36.516      7.153     10.796    0.208       1 
 23344.000    39.6984381331   116.3219180842     36.696      5.909     12.212    0.205       1 
 23345.000    39.6984861912   116.3220665304     36.886      4.905     13.343    0.163       1 
 23346.000    39.6985243389   116.3222282689     37.016      3.754     14.461    0.129       1 
 23347.000    39.6985569024   116.3224011823     37.141      3.601     15.251    0.102       1 
 23348.000    39.6985894081   116.3225832744     37.260      3.727     15.976    0.100       1 
 23349.000    39.6986252219   116.3227735342     37.356      4.212     16.641    0.103       1 
 23350.000    39.6986652464   116.3229716522     37.443      4.618     17.340    0.094       1 
 23351.000    39.6987069022   116.3231783777     37.561      4.595     18.131    0.099       1 
 23352.000    39.6987475190   116.3233940832     37.653      4.477     18.882    0.063       1 
 23353.000    39.6987874375   116.3236184425     37.782      4.408     19.566    0.077       1 
 23354.000    39.6988265818   116.3238491159     37.812      4.348     20.049    0.038       1 
 23355.000    39.6988660789   116.3240862086     37.794      4.430     20.602   -0.066       1 
 23356.000    39.6989062486   116.3243288514     37.748      4.447     20.982    0.019       1 
 23357.000    39.6989465081   116.3245742261     37.696      4.477     21.159   -0.048       1 
 23358.000    39.6989869213   116.3248218586     37.657      4.496     21.320   -0.038       1 
 23359.000    39.6990268480   116.3250701962     37.608      4.382     21.257   -0.081       1 
 23360.000    39.6990662420   116.3253166248     37.538      4.404     20.983   -0.103       1 
