   GPSTime         Latitude        Longitude      H-Ell      Vel-N      Vel-E    Vel-U   Q
     (sec)            (Deg)            (Deg)        (m)      (m/s)      (m/s)    (m/s)  
 387198.00    30.4774163858   114.4497198628     33.892     11.641     10.192   -0.124       1 
 387199.00    30.4775093872   114.4498395899     33.886     11.345     10.395   -0.139       1 
 387200.00    30.4776038155   114.4499567454     33.729     11.092     10.498   -0.193       1 
 387201.00    30.4776988192   114.4500704009     33.547     10.786     10.560   -0.144       1 
 387202.00    30.4777958963   114.4501829676     33.347     10.822     10.926   -0.189       1 
 387203.00    30.4778967387   114.4502960131     33.072     10.877     11.398   -0.289       1 
 387204.00    30.4780021259   114.4504091290     32.745     10.837     11.935   -0.354       1 
 387205.00    30.4781124216   114.4505217327     32.362     10.810     12.450   -0.340       1 
 387206.00    30.4782271814   114.4506343807     31.921     10.772     13.019   -0.586       1 
 387207.00    30.4783471937   114.4507461240     31.428     10.665     13.608   -0.558       1 
 387208.00    30.4784720413   114.4508565622     30.888     10.453     14.008   -0.542       1 
 387209.00    30.4785987958   114.4509636746     30.374     10.184     14.080   -0.616       1 
 387210.00    30.4787257447   114.4510672409     29.848      9.661     14.052   -0.465       1 
 387211.00    30.4788517685   114.4511661277     29.445      9.294     13.850   -0.348       1 
 387212.00    30.4789757082   114.4512605138     29.047      8.818     13.548   -0.357       1 
 387213.00    30.4790966229   114.4513496801     28.696      8.283     13.262   -0.302       1 
 387214.00    30.4792164058   114.4514335030     28.388      7.807     13.285   -0.263       1 
 387215.00    30.4793363670   114.4515128292     28.128      7.494     13.303   -0.227       1 
 387216.00    30.4794576044   114.4515891139     27.890      7.210     13.578   -0.266       1 
 387217.00    30.4795810931   114.4516627541     27.713      6.930     13.770   -0.128       1 
 387218.00    30.4797059008   114.4517328162     27.576      6.485     13.824   -0.135       1 
 387219.00    30.4798298164   114.4517987594     27.435      6.172     13.646   -0.168       1 
 387220.00    30.4799520175   114.4518617612     27.300      5.899     13.442   -0.118       1 
 387221.00    30.4800733227   114.4519217288     27.179      5.676     13.457   -0.083       1 
 387222.00    30.4801956193   114.4519799287     27.128      5.495     13.693   -0.083       1 
 387223.00    30.4803204469   114.4520364157     27.101      5.333     14.010    0.038       1 
 387224.00    30.4804486447   114.4520904773     27.096      5.056     14.399    0.012       1 
 387225.00    30.4805802317   114.4521418535     27.102      4.804     14.756    0.022       1 
 387226.00    30.4807150392   114.4521905410     27.115      4.555     15.122    0.013       1 
 387227.00    30.4808525619   114.4522375791     27.178      4.482     15.397    0.015       1 
 387228.00    30.4809924734   114.4522838781     27.285      4.331     15.644    0.157       1 
 387229.00    30.4811351050   114.4523271085     27.463      3.978     15.953    0.181       1 
 387230.00    30.4812804103   114.4523671556     27.600      3.666     16.248    0.161       1 
 387231.00    30.4814284052   114.4524034592     27.808      3.315     16.525    0.247       1 
 387232.00    30.4815786620   114.4524359157     28.060      2.938     16.778    0.261       1 
 387233.00    30.4817301520   114.4524645154     28.331      2.523     16.692    0.258       1 
 387234.00    30.4818788730   114.4524894616     28.573      2.298     16.231    0.275       1 
 387235.00    30.4820232933   114.4525123521     28.806      2.150     15.824    0.217       1 
 387236.00    30.4821642291   114.4525338891     29.081      1.893     15.447    0.306       1 
 387237.00    30.4823034499   114.4525508113     29.331      1.347     15.412    0.280       1 
 387238.00    30.4824427844   114.4525622569     29.569      0.820     15.472    0.203       1 
 387239.00    30.4825827432   114.4525688053     29.794      0.417     15.536    0.254       1 
 387240.00    30.4827229430   114.4525718459     29.993      0.151     15.297    0.177       1 
 387241.00    30.4828553003   114.4525718771     30.159     -0.152     13.976    0.204       1 
 387242.00    30.4829756978   114.4525699549     30.359     -0.176     12.966    0.208       1 
 387243.00    30.4830912012   114.4525682583     30.585     -0.147     12.730    0.237       1 
 387244.00    30.4832057862   114.4525661661     30.856     -0.270     12.727    0.200       1 
 387245.00    30.4833209501   114.4525621043     31.023     -0.524     12.785    0.255       1 
 387246.00    30.4834355398   114.4525554097     31.226     -0.641     12.391    0.171       1 
 387247.00    30.4835422485   114.4525504598     31.440     -0.300     11.216    0.230       1 
 387248.00    30.4836376412   114.4525491219     31.632      0.025      9.920    0.149       1 
 387249.00    30.4837219844   114.4525501496     31.831      0.120      9.020    0.163       1 
 387250.00    30.4838021368   114.4525508725     31.934     -0.033      8.843    0.112       1 
 387251.00    30.4838799726   114.4525486014     32.058     -0.545      8.028    0.083       1 
 387252.00    30.4839461396   114.4525409808     32.123     -0.794      6.975    0.042       1 
 387253.00    30.4840089306   114.4525330226     32.170     -0.769      7.198    0.061       1 
 387254.00    30.4840767358   114.4525246033     32.254     -0.838      7.837    0.081       1 
 387255.00    30.4841502635   114.4525150965     32.354     -0.997      8.449    0.096       1 
 387256.00    30.4842290841   114.4525040487     32.444     -1.107      9.034    0.086       1 
 387257.00    30.4843128834   114.4524917071     32.550     -1.250      9.565    0.066       1 
 387258.00    30.4844013658   114.4524782432     32.673     -1.344     10.038    0.195       1 
 387259.00    30.4844943656   114.4524635953     32.782     -1.441     10.564    0.046       1 
 387260.00    30.4845898267   114.4524480565     32.884     -1.503     10.515    0.067       1 
 387261.00    30.4846827653   114.4524324535     32.954     -1.463     10.043    0.063       1 
 387262.00    30.4847723337   114.4524180037     33.031     -1.307      9.948    0.123       1 
 387263.00    30.4848637288   114.4524053223     33.038     -1.042     10.233    0.118       1 
 387264.00    30.4849549893   114.4523977014     33.108     -0.407      9.942    0.002       1 
 387265.00    30.4850423050   114.4523964147     33.129      0.083      9.457    0.031       1 
 387266.00    30.4851257124   114.4523990742     33.121      0.444      9.096   -0.043       1 
 387267.00    30.4852082223   114.4524065855     33.060      0.990      9.269   -0.089       1 
 387268.00    30.4852927886   114.4524201482     32.970      1.604      9.472   -0.042       1 
 387269.00    30.4853781705   114.4524399939     32.915      2.167      9.470   -0.113       1 
 387270.00    30.4854626078   114.4524652882     32.817      2.678      9.229   -0.088       1 
 387271.00    30.4855445316   114.4524971806     32.722      3.424      8.954   -0.124       1 
 387272.00    30.4856235105   114.4525352921     32.616      3.874      8.674   -0.124       1 
 387273.00    30.4857010395   114.4525783737     32.530      4.484      8.605   -0.124       1 
 387274.00    30.4857777575   114.4526284944     32.444      5.159      8.485   -0.082       1 
 387275.00    30.4858539771   114.4526848937     32.343      5.685      8.477   -0.011       1 
 387276.00    30.4859299472   114.4527464002     32.238      6.114      8.386   -0.033       1 
 387277.00    30.4860059494   114.4528123084     32.165      6.562      8.469   -0.097       1 
 387278.00    30.4860827843   114.4528823544     32.067      6.894      8.612   -0.094       1 
 387279.00    30.4861614815   114.4529552592     31.975      7.120      8.851   -0.087       1 
 387280.00    30.4862424305   114.4530304317     31.872      7.324      9.101   -0.147       1 
 387281.00    30.4863255810   114.4531080424     31.746      7.573      9.341   -0.140       1 
 387282.00    30.4864109288   114.4531883912     31.553      7.833      9.593   -0.096       1 
 387283.00    30.4864984752   114.4532714144     31.334      8.034      9.737   -0.227       1 
 387284.00    30.4865857600   114.4533547918     31.040      7.957      9.612   -0.329       1 
 387285.00    30.4866715572   114.4534369539     30.737      7.814      9.432   -0.356       1 
 387286.00    30.4867557772   114.4535178935     30.404      7.719      9.257   -0.322       1 
 387287.00    30.4868380451   114.4535984126     30.122      7.801      8.969   -0.261       1 
 387288.00    30.4869162031   114.4536807783     29.820      8.089      8.367   -0.316       1 
 387289.00    30.4869876137   114.4537667153     29.502      8.449      7.585   -0.350       1 
 387290.00    30.4870517368   114.4538554889     29.230      8.677      6.683   -0.227       1 
 387291.00    30.4871048570   114.4539466943     29.043      8.796      5.159   -0.201       0 
 387292.00    30.4871452339   114.4540343309     28.916      8.076      3.946   -0.034       0 
 387293.00    30.4871761541   114.4541166340     28.889      7.864      3.065   -0.008       0 
 387294.00    30.4871995497   114.4541970179     28.904      7.721      2.294    0.019       0 
 387295.00    30.4872176255   114.4542788523     28.952      8.120      1.858    0.064       0 
 387296.00    30.4872322108   114.4543656583     29.008      8.650      1.466    0.065       0 
 387297.00    30.4872429407   114.4544586739     29.088      9.254      1.026    0.060       0 
 387298.00    30.4872488360   114.4545579475     29.144      9.855      0.423    0.091       0 
 387299.00    30.4872498217   114.4546623984     29.224     10.172     -0.069    0.102       0 
 387300.00    30.4872474771   114.4547657718     29.404      9.663     -0.341    0.212       0 
 387301.00    30.4872445753   114.4548639771     29.390      9.223     -0.324   -0.112       0 
 387302.00    30.4872416090   114.4549573209     29.371      8.634     -0.332    0.023       0 
 387303.00    30.4872383469   114.4550422768     29.407      7.675     -0.373    0.051       1 
 387304.00    30.4872347228   114.4551174403     29.445      6.890     -0.411    0.026       1 
 387305.00    30.4872317429   114.4551866666     29.476      6.603     -0.239    0.022       1 
 387306.00    30.4872307141   114.4552596298     29.517      7.384     -0.052    0.051       1 
 387307.00    30.4872306830   114.4553408522     29.585      8.172      0.003    0.071       1 
 387308.00    30.4872304448   114.4554296297     29.648      8.877     -0.072    0.040       1 
 387309.00    30.4872289193   114.4555252262     29.719      9.502     -0.228    0.075       1 
 387310.00    30.4872263546   114.4556272010     29.788     10.095     -0.307    0.074       1 
 387311.00    30.4872232016   114.4557350573     29.845     10.532     -0.366    0.050       1 
 387312.00    30.4872195024   114.4558435953     29.899     10.290     -0.444    0.073       1 
 387313.00    30.4872152974   114.4559501623     29.974     10.210     -0.497    0.104       1 
 387314.00    30.4872106078   114.4560565952     30.075     10.265     -0.531    0.098       1 
 387315.00    30.4872057148   114.4561642283     30.151     10.411     -0.545    0.079       1 
 387316.00    30.4872010370   114.4562742253     30.227     10.672     -0.498    0.080       1 
 387317.00    30.4871967166   114.4563866161     30.318     10.903     -0.455    0.112       1 
 387318.00    30.4871929722   114.4565015122     30.409     11.152     -0.397    0.111       1 
 387319.00    30.4871900087   114.4566192539     30.508     11.412     -0.280    0.073       1 
 387320.00    30.4871880526   114.4567374488     30.590     11.147     -0.143    0.092       1 
 387321.00    30.4871874194   114.4568512295     30.705     10.639     -0.053    0.161       1 
 387322.00    30.4871878779   114.4569595223     30.815     10.103      0.097    0.078       1 
 387323.00    30.4871890002   114.4570600689     30.913      9.204      0.136    0.119       1 
 387324.00    30.4871902430   114.4571530916     30.999      8.668      0.138    0.064       1 
 387325.00    30.4871914767   114.4572437561     31.065      8.878      0.128    0.063       1 
 387326.00    30.4871928640   114.4573388936     31.179      9.298      0.181    0.118       1 
 387327.00    30.4871945709   114.4574297737     31.276      7.984      0.191    0.040       1 
 387328.00    30.4871964295   114.4575099552     31.346      7.401      0.225    0.043       1 
 387329.00    30.4871984775   114.4575850946     31.419      7.191      0.226    0.107       1 
 387330.00    30.4872009441   114.4576608264     31.508      7.347      0.304    0.103       1 
 387331.00    30.4872038294   114.4577383393     31.608      7.537      0.302    0.072       1 
 387332.00    30.4872061602   114.4578179109     31.687      7.796      0.235    0.104       1 
 387333.00    30.4872082962   114.4579013685     31.771      8.238      0.222    0.104       1 
 387334.00    30.4872105273   114.4579895242     31.883      8.701      0.281    0.065       1 
 387335.00    30.4872133599   114.4580827432     31.976      9.161      0.354    0.110       1 
 387336.00    30.4872168181   114.4581808575     32.070      9.638      0.407    0.097       1 
 387337.00    30.4872210322   114.4582817002     32.164      9.544      0.534    0.020       1 
 387338.00    30.4872261156   114.4583809150     32.259      9.563      0.592    0.128       1 
 387339.00    30.4872314419   114.4584812524     32.373      9.705      0.573    0.099       1 
 387340.00    30.4872368734   114.4585828327     32.476      9.718      0.608    0.097       1 
 387341.00    30.4872422282   114.4586828400     32.569      9.466      0.590    0.131       1 
 387342.00    30.4872473257   114.4587801002     32.670      9.278      0.539    0.117       1 
 387343.00    30.4872522508   114.4588781309     32.778      9.556      0.542    0.088       1 
 387344.00    30.4872572098   114.4589794565     32.856      9.901      0.564    0.063       1 
 387345.00    30.4872625948   114.4590840869     32.943     10.189      0.627    0.079       1 
 387346.00    30.4872686346   114.4591895592     33.032      9.968      0.688    0.089       1 
 387347.00    30.4872747820   114.4592899855     33.103      9.079      0.662    0.013       1 
 387348.00    30.4872802777   114.4593771859     33.155      7.782      0.564    0.008       1 
 387349.00    30.4872850425   114.4594533333     33.189      6.953      0.481    0.046       1 
 387350.00    30.4872892409   114.4595228399     33.209      6.385      0.425    0.050       1 
 387351.00    30.4872929305   114.4595889460     33.251      6.512      0.430   -0.008       1 
 387352.00    30.4872970424   114.4596599636     33.278      7.122      0.495    0.033       1 
 387353.00    30.4873025557   114.4597377177     33.316      7.761      0.698    0.024       1 
 387354.00    30.4873099747   114.4598216626     33.374      8.308      0.908    0.105       1 
 387355.00    30.4873190111   114.4599109888     33.437      8.818      1.079   -0.032       1 
 387356.00    30.4873291407   114.4600056367     33.452      9.343      1.169    0.006       1 
 387357.00    30.4873402401   114.4601053997     33.451      9.738      1.287   -0.000       1 
 387358.00    30.4873518731   114.4602054349     33.449      9.413      1.276   -0.012       1 
 387359.00    30.4873626491   114.4603014197     33.443      8.973      1.131   -0.005       1 
 387360.00    30.4873718386   114.4603900579     33.459      8.152      0.973   -0.015       1 
 387361.00    30.4873799891   114.4604743536     33.450      8.218      0.887   -0.031       1 
 387362.00    30.4873880284   114.4605628566     33.444      8.807      0.933    0.003       1 
 387363.00    30.4873974402   114.4606577143     33.411      9.399      1.178   -0.072       1 
 387364.00    30.4874091632   114.4607588814     33.349     10.008      1.374   -0.082       1 
 387365.00    30.4874222244   114.4608663498     33.284     10.599      1.512   -0.050       1 
 387366.00    30.4874365671   114.4609797347     33.228     11.148      1.648   -0.024       1 
 387367.00    30.4874521287   114.4610984635     33.149     11.548      1.784   -0.105       1 
 387368.00    30.4874685904   114.4612175565     33.077     11.126      1.844   -0.098       1 
 387369.00    30.4874849615   114.4613279580     32.993     10.022      1.778   -0.099       1 
 387370.00    30.4875003307   114.4614259976     32.933      8.807      1.606   -0.066       1 
 387371.00    30.4875138565   114.4615139977     32.890      8.228      1.357   -0.030       1 
 387372.00    30.4875262131   114.4615979413     32.876      8.090      1.360   -0.005       1 
 387373.00    30.4875384589   114.4616839933     32.854      8.368      1.394   -0.109       1 
 387374.00    30.4875505788   114.4617700316     32.790      8.186      1.321   -0.048       1 
 387375.00    30.4875629555   114.4618570042     32.739      8.532      1.413   -0.023       1 
 387376.00    30.4875764952   114.4619482507     32.670      8.992      1.563   -0.070       1 
 387377.00    30.4875915596   114.4620446962     32.585      9.526      1.749   -0.086       1 
 387378.00    30.4876083659   114.4621469148     32.517     10.072      1.958   -0.068       1 
 387379.00    30.4876269345   114.4622545942     32.443     10.454      2.128   -0.082       1 
 387380.00    30.4876463062   114.4623620211     32.368     10.090      2.129   -0.045       1 
 387381.00    30.4876650305   114.4624642896     32.292      9.505      2.014   -0.051       1 
 387382.00    30.4876825419   114.4625601348     32.226      8.875      1.880   -0.059       1 
 387383.00    30.4876987817   114.4626504310     32.149      8.497      1.727   -0.058       1 
 387384.00    30.4877140283   114.4627374226     32.075      8.328      1.686   -0.131       1 
 387385.00    30.4877297675   114.4628258379     32.033      8.696      1.821   -0.040       1 
 387386.00    30.4877467389   114.4629186430     31.982      9.117      1.943   -0.043       1 
 387387.00    30.4877647732   114.4630158603     31.919      9.548      2.050   -0.052       1 
 387388.00    30.4877835256   114.4631172456     31.845      9.854      2.105   -0.115       1 
 387389.00    30.4878024402   114.4632198672     31.758      9.865      2.081   -0.046       1 
 387390.00    30.4878219894   114.4633243533     31.669     10.204      2.225   -0.125       1 
 387391.00    30.4878423647   114.4634302102     31.587     10.035      2.272   -0.097       1 
 387392.00    30.4878627543   114.4635322944     31.537      9.517      2.187    0.063       1 
 387393.00    30.4878821604   114.4636286740     31.478      8.911      2.052   -0.009       1 
 387394.00    30.4878997711   114.4637157710     31.408      7.796      1.819   -0.088       1 
 387395.00    30.4879157086   114.4637937097     31.349      7.080      1.665   -0.037       1 
 387396.00    30.4879299182   114.4638617010     31.309      6.108      1.531   -0.069       1 
 387397.00    30.4879438344   114.4639221628     31.253      5.461      1.549    0.022       1 
 387398.00    30.4879589602   114.4639756316     31.226      4.722      1.686   -0.069       1 
 387399.00    30.4879749623   114.4640208982     31.175      3.917      1.697   -0.073       1 
 387400.00    30.4879916022   114.4640587477     31.117      3.603      2.045   -0.089       1 
 387401.00    30.4880122755   114.4641005317     31.116      4.337      2.497   -0.035       1 
