   GPSTime         Latitude        Longitude      H-Ell      Vel-N      Vel-E    Vel-U   Q
     (sec)            (Deg)            (Deg)        (m)      (m/s)      (m/s)    (m/s)  
 394859.00    30.4808357223   114.1542027277     15.508     -5.852     -8.260    0.082       1 
 394860.00    30.4807624724   114.1541422884     15.563     -5.733     -8.005    0.087       1 
 394861.00    30.4806917462   114.1540827053     15.606     -5.678     -7.688    0.031       1 
 394862.00    30.4806238357   114.1540251117     15.649     -5.386     -7.346    0.058       1 
 394863.00    30.4805592290   114.1539709147     15.691     -5.026     -6.969    0.032       1 
 394864.00    30.4804981626   114.1539197974     15.720     -4.788     -6.605    0.057       1 
 394865.00    30.4804395852   114.1538706173     15.755     -4.645     -6.390    0.035       1 
 394866.00    30.4803832593   114.1538235468     15.766     -4.359     -6.051    0.079       1 
 394867.00    30.4803300232   114.1537787125     15.790     -4.227     -5.793    0.004       1 
 394868.00    30.4802793603   114.1537356838     15.797     -3.989     -5.413    0.044       1 
 394869.00    30.4802322241   114.1536957533     15.831     -3.746     -5.099    0.051       1 
 394870.00    30.4801876780   114.1536581297     15.848     -3.448     -4.717    0.019       1 
 394871.00    30.4801466512   114.1536233157     15.863     -3.292     -4.475    0.049       1 
 394872.00    30.4801063153   114.1535887461     15.891     -3.337     -4.491    0.031       1 
 394873.00    30.4800653631   114.1535537288     15.909     -3.400     -4.609    0.032       1 
 394874.00    30.4800226587   114.1535178369     15.923     -3.525     -4.881    0.016       1 
 394875.00    30.4799770249   114.1534802124     15.948     -3.712     -5.227    0.018       1 
 394876.00    30.4799283459   114.1534406432     15.967     -3.903     -5.555    0.052       1 
 394877.00    30.4798769501   114.1533991407     15.993     -4.087     -5.828    0.096       1 
 394878.00    30.4798240101   114.1533559795     16.019     -4.096     -5.779    0.002       1 
 394879.00    30.4797732203   114.1533136134     16.023     -4.046     -5.525    0.008       1 
 394880.00    30.4797242386   114.1532708316     16.039     -4.123     -5.367    0.021       1 
 394881.00    30.4796768078   114.1532275415     16.055     -4.056     -5.055    0.052       1 
 394882.00    30.4796341134   114.1531852479     16.065     -3.900     -4.442   -0.014       1 
 394883.00    30.4795966619   114.1531454646     16.068     -3.619     -3.889    0.001       1 
 394884.00    30.4795642867   114.1531097658     16.068     -3.171     -3.312    0.010       1 
 394885.00    30.4795372548   114.1530797280     16.080     -2.567     -2.672    0.020       1 
 394886.00    30.4795154740   114.1530558984     16.095     -2.132     -2.249    0.027       1 
 394887.00    30.4794957018   114.1530349537     16.105     -1.868     -2.057    0.027       1 
 394888.00    30.4794770723   114.1530157747     16.116     -1.803     -2.035    0.018       1 
 394889.00    30.4794596900   114.1529983234     16.128     -1.573     -1.831    0.010       1 
 394890.00    30.4794438308   114.1529827137     16.131     -1.419     -1.663    0.009       1 
 394891.00    30.4794294323   114.1529688450     16.143     -1.387     -1.654    0.013       1 
 394892.00    30.4794128815   114.1529531935     16.145     -1.593     -1.966    0.018       1 
 394893.00    30.4793943532   114.1529367963     16.159     -1.631     -2.132    0.020       1 
 394894.00    30.4793732862   114.1529196249     16.189     -1.820     -2.551    0.031       1 
 394895.00    30.4793478876   114.1529004794     16.218     -1.947     -2.977    0.024       1 
 394896.00    30.4793196398   114.1528799044     16.234     -2.062     -3.267    0.024       1 
 394897.00    30.4792888168   114.1528577363     16.259     -2.213     -3.558    0.022       1 
 394898.00    30.4792554648   114.1528337178     16.271     -2.387     -3.821   -0.004       1 
 394899.00    30.4792200591   114.1528077974     16.252     -2.565     -4.027   -0.024       1 
 394900.00    30.4791830873   114.1527794144     16.230     -2.819     -4.197   -0.020       1 
 394901.00    30.4791446103   114.1527476136     16.207     -3.198     -4.410   -0.007       1 
 394902.00    30.4791037642   114.1527117182     16.172     -3.588     -4.693   -0.032       1 
 394903.00    30.4790600734   114.1526731233     16.135     -3.798     -4.992   -0.033       1 
 394904.00    30.4790137304   114.1526330733     16.106     -3.923     -5.276    0.010       1 
 394905.00    30.4789648883   114.1525918849     16.081     -4.021     -5.544   -0.023       1 
 394906.00    30.4789136150   114.1525495887     16.043     -4.123     -5.820   -0.007       1 
 394907.00    30.4788600461   114.1525065774     16.025     -4.176     -6.060   -0.039       1 
 394908.00    30.4788037992   114.1524642460     16.002     -4.058     -6.380   -0.036       1 
 394909.00    30.4787449158   114.1524228586     15.983     -3.992     -6.634   -0.025       1 
 394910.00    30.4786841720   114.1523811915     15.962     -4.030     -6.816   -0.020       1 
 394911.00    30.4786224240   114.1523375693     15.945     -4.282     -6.882   -0.015       1 
 394912.00    30.4785604199   114.1522905038     15.916     -4.637     -6.913   -0.008       1 
 394913.00    30.4784977098   114.1522394617     15.895     -5.062     -7.059   -0.023       1 
 394914.00    30.4784329759   114.1521845974     15.839     -5.365     -7.288   -0.066       1 
 394915.00    30.4783677371   114.1521293521     15.802     -5.196     -7.169   -0.039       1 
 394916.00    30.4783030843   114.1520767929     15.781     -5.014     -7.138   -0.023       1 
 394917.00    30.4782388317   114.1520247284     15.751     -4.975     -7.102   -0.018       1 
 394918.00    30.4781747733   114.1519726217     15.707     -5.050     -7.106   -0.039       1 
 394919.00    30.4781106872   114.1519188469     15.684     -5.234     -7.126   -0.029       1 
 394920.00    30.4780465241   114.1518641876     15.638     -5.195     -7.066   -0.063       1 
 394921.00    30.4779816251   114.1518090511     15.610     -5.393     -7.327   -0.035       1 
 394922.00    30.4779162964   114.1517533164     15.579     -5.277     -7.107   -0.013       1 
 394923.00    30.4778534160   114.1516990481     15.558     -5.157     -6.867   -0.012       1 
 394924.00    30.4777921896   114.1516451574     15.512     -5.150     -6.722   -0.038       1 
 394925.00    30.4777320652   114.1515920832     15.498     -5.034     -6.619   -0.020       1 
 394926.00    30.4776725978   114.1515400050     15.446     -4.962     -6.546   -0.044       1 
 394927.00    30.4776146068   114.1514895922     15.417     -4.733     -6.284   -0.026       1 
 394928.00    30.4775593413   114.1514420579     15.392     -4.409     -5.951    0.008       1 
 394929.00    30.4775073952   114.1513977315     15.375     -4.099     -5.562   -0.052       1 
 394930.00    30.4774588969   114.1513566050     15.338     -3.820     -5.180   -0.050       1 
 394931.00    30.4774139901   114.1513186503     15.307     -3.475     -4.772    0.003       1 
 394932.00    30.4773732058   114.1512841704     15.296     -3.127     -4.272   -0.005       1 
 394933.00    30.4773372605   114.1512535983     15.280     -2.737     -3.699   -0.038       1 
 394934.00    30.4773066650   114.1512274844     15.243     -2.281     -3.072   -0.023       1 
 394935.00    30.4772818990   114.1512062364     15.216     -1.830     -2.477   -0.020       1 
 394936.00    30.4772614298   114.1511886313     15.217     -1.547     -2.095   -0.005       1 
 394937.00    30.4772434548   114.1511730813     15.223     -1.406     -1.857    0.012       1 
 394938.00    30.4772286316   114.1511602310     15.217     -1.062     -1.420   -0.024       1 
 394939.00    30.4772178192   114.1511508898     15.204     -0.741     -0.985   -0.023       1 
 394940.00    30.4772103835   114.1511445023     15.175     -0.519     -0.665   -0.058       1 
 394941.00    30.4772059614   114.1511406260     15.163     -0.221     -0.308    0.020       1 
 394942.00    30.4772049373   114.1511397547     15.162      0.000     -0.006    0.005       1 
 394943.00    30.4772049457   114.1511397559     15.163     -0.005      0.007   -0.024       1 
 394944.00    30.4772049474   114.1511397505     15.164     -0.001     -0.009    0.028       1 
 394945.00    30.4772049460   114.1511397409     15.165     -0.005      0.005   -0.018       1 
 394946.00    30.4772049416   114.1511397329     15.167      0.003     -0.009    0.030       1 
 394947.00    30.4772049381   114.1511397272     15.169      0.006      0.007   -0.017       1 
 394948.00    30.4772049412   114.1511397219     15.171      0.009     -0.008    0.027       1 
 394949.00    30.4772049433   114.1511397166     15.171     -0.002      0.010   -0.036       1 
 394950.00    30.4772049420   114.1511397127     15.171     -0.003     -0.004    0.011       1 
 394951.00    30.4772049432   114.1511397144     15.171     -0.009     -0.008    0.021       1 
 394952.00    30.4772049436   114.1511397138     15.171     -0.007      0.008   -0.027       1 
 394953.00    30.4772049439   114.1511397138     15.169      0.001     -0.003    0.018       1 
 394954.00    30.4772049481   114.1511397112     15.168      0.011     -0.007    0.027       1 
 394955.00    30.4772049489   114.1511397039     15.167      0.005      0.009   -0.032       1 
 394956.00    30.4772049488   114.1511396935     15.167      0.004      0.010   -0.031       1 
 394957.00    30.4772049483   114.1511396906     15.167      0.005     -0.004    0.015       1 
 394958.00    30.4772049506   114.1511396900     15.167     -0.005     -0.006    0.012       1 
 394959.00    30.4772049546   114.1511396871     15.167     -0.009      0.007   -0.024       1 
 394960.00    30.4772049588   114.1511396864     15.167     -0.002     -0.001    0.003       1 
 394961.00    30.4772049592   114.1511396850     15.167      0.007     -0.012    0.039       1 
 394962.00    30.4772049558   114.1511396844     15.167      0.003     -0.003    0.008       1 
 394963.00    30.4772049520   114.1511396837     15.167      0.005      0.010   -0.031       1 
 394964.00    30.4772049509   114.1511396828     15.167      0.002     -0.003    0.011       1 
 394965.00    30.4772049502   114.1511396857     15.168      0.001     -0.011    0.031       1 
 394966.00    30.4772049512   114.1511396846     15.168     -0.009     -0.002   -0.004       1 
 394967.00    30.4772049526   114.1511396788     15.168      0.001      0.008   -0.020       1 
 394968.00    30.4772049543   114.1511396757     15.167      0.009      0.004   -0.001       1 
 394969.00    30.4772049548   114.1511396755     15.167      0.006     -0.008    0.021       1 
 394970.00    30.4772049520   114.1511396747     15.167      0.000      0.011   -0.037       1 
 394971.00    30.4772049505   114.1511396774     15.167     -0.004      0.004   -0.013       1 
 394972.00    30.4772049515   114.1511396785     15.167     -0.005     -0.009    0.029       1 
 394973.00    30.4772049546   114.1511396771     15.168     -0.004     -0.006    0.015       1 
 394974.00    30.4772049526   114.1511396719     15.167      0.010      0.007   -0.020       1 
 394975.00    30.4772049516   114.1511396723     15.167      0.014      0.009   -0.014       1 
 394976.00    30.4772049555   114.1511396736     15.166      0.008     -0.007    0.022       1 
 394977.00    30.4772049599   114.1511396704     15.167     -0.005     -0.004    0.005       1 
 394978.00    30.4772049640   114.1511396640     15.167     -0.007      0.007   -0.025       1 
 394979.00    30.4772042700   114.1511390626     15.166     -0.174     -0.227   -0.018       1 
 394980.00    30.4772000684   114.1511354137     15.160     -0.523     -0.706   -0.024       1 
 394981.00    30.4771898644   114.1511265312     15.163     -1.299     -1.709   -0.011       1 
 394982.00    30.4771680861   114.1511080359     15.153     -2.252     -3.070   -0.031       1 
 394983.00    30.4771340281   114.1510810014     15.129     -3.039     -4.433   -0.013       1 
 394984.00    30.4770881683   114.1510469964     15.147     -3.602     -5.656    0.026       1 
 394985.00    30.4770327012   114.1510063798     15.128     -4.235     -6.559   -0.087       1 
 394986.00    30.4769699394   114.1509574779     15.049     -5.103     -7.347   -0.187       1 
 394987.00    30.4768998164   114.1509011796     14.927     -5.720     -8.177   -0.189       1 
 394988.00    30.4768223556   114.1508386387     14.773     -6.280     -8.987   -0.141       1 
 394989.00    30.4767384570   114.1507698702     14.648     -6.907     -9.611   -0.082       1 
 394990.00    30.4766492555   114.1506946835     14.592     -7.461    -10.184   -0.043       1 
 394991.00    30.4765546166   114.1506150735     14.585     -7.843    -10.777    0.044       1 
 394992.00    30.4764554281   114.1505311837     14.613     -8.254    -11.238    0.047       1 
 394993.00    30.4763534901   114.1504444669     14.614     -8.296    -11.267    0.006       1 
 394994.00    30.4762526985   114.1503581324     14.631     -8.329    -11.172    0.057       1 
 394995.00    30.4761516121   114.1502700218     14.673     -8.591    -11.232   -0.002       1 
 394996.00    30.4760509339   114.1501773703     14.720     -9.044    -11.069    0.046       1 
 394997.00    30.4759529207   114.1500822443     14.772     -9.220    -10.655    0.042       1 
 394998.00    30.4758582591   114.1499830378     14.810     -9.655    -10.386   -0.002       1 
 394999.00    30.4757663253   114.1498820778     14.852     -9.628     -9.999    0.032       1 
 395000.00    30.4756784250   114.1497822304     14.882     -9.460     -9.496    0.091       1 
 395001.00    30.4755955757   114.1496833684     14.920     -9.471     -8.915    0.016       1 
 395002.00    30.4755174609   114.1495840024     14.969     -9.573     -8.502    0.059       1 
 395003.00    30.4754415194   114.1494824333     15.028     -9.893     -8.399    0.074       1 
 395004.00    30.4753665460   114.1493769544     15.053    -10.306     -8.218    0.052       1 
 395005.00    30.4752942303   114.1492666504     15.095    -10.714     -7.915    0.048       1 
 395006.00    30.4752246137   114.1491529116     15.117    -10.997     -7.579    0.052       1 
 395007.00    30.4751572205   114.1490371147     15.170    -11.191     -7.430    0.008       1 
 395008.00    30.4750910699   114.1489190560     15.211    -11.409     -7.255    0.053       1 
 395009.00    30.4750266814   114.1487986770     15.239    -11.683     -7.066    0.052       1 
 395010.00    30.4749640891   114.1486750954     15.277    -11.978     -6.868    0.040       1 
 395011.00    30.4749032035   114.1485483249     15.320    -12.304     -6.689    0.060       1 
 395012.00    30.4748431944   114.1484187961     15.359    -12.544     -6.667    0.033       1 
 395013.00    30.4747826952   114.1482872563     15.408    -12.740     -6.774    0.020       1 
 395014.00    30.4747206979   114.1481537544     15.447    -12.907     -6.967    0.034       1 
 395015.00    30.4746567894   114.1480186482     15.490    -13.042     -7.169    0.027       1 
 395016.00    30.4745918732   114.1478824918     15.579    -13.082     -7.158    0.056       1 
 395017.00    30.4745283969   114.1477476300     15.612    -12.781     -6.919    0.051       1 
 395018.00    30.4744670925   114.1476161289     15.639    -12.464     -6.663   -0.020       1 
 395019.00    30.4744078836   114.1474881550     15.661    -12.096     -6.507    0.083       1 
 395020.00    30.4743503366   114.1473640516     15.705    -11.730     -6.270    0.071       1 
 395021.00    30.4742946684   114.1472438202     15.746    -11.350     -6.072    0.035       1 
 395022.00    30.4742407980   114.1471275579     15.798    -10.972     -5.874    0.048       1 
 395023.00    30.4741885106   114.1470153223     15.819    -10.595     -5.740    0.028       1 
 395024.00    30.4741372173   114.1469074440     15.858    -10.144     -5.612    0.050       1 
 395025.00    30.4740875503   114.1468036732     15.894     -9.755     -5.392    0.028       1 
 395026.00    30.4740398391   114.1467038125     15.915     -9.391     -5.175    0.015       1 
 395027.00    30.4739943474   114.1466077908     15.942     -9.035     -4.919    0.005       1 
 395028.00    30.4739509372   114.1465158869     15.980     -8.613     -4.709    0.051       1 
 395029.00    30.4739092933   114.1464282814     16.005     -8.193     -4.547    0.056       1 
 395030.00    30.4738688033   114.1463456221     16.042     -7.700     -4.402    0.045       1 
 395031.00    30.4738301476   114.1462676434     16.077     -7.272     -4.160    0.058       1 
 395032.00    30.4737942350   114.1461941025     16.123     -6.834     -3.809    0.028       1 
 395033.00    30.4737614570   114.1461248698     16.129     -6.403     -3.474    0.012       1 
 395034.00    30.4737317314   114.1460599942     16.157     -5.981     -3.154    0.031       1 
 395035.00    30.4737045558   114.1460004487     16.186     -5.443     -2.879    0.041       1 
 395036.00    30.4736798290   114.1459468817     16.212     -4.843     -2.601    0.040       1 
 395037.00    30.4736578514   114.1458999614     16.239     -4.145     -2.269    0.030       1 
 395038.00    30.4736391743   114.1458606311     16.258     -3.387     -1.867    0.005       1 
 395039.00    30.4736241948   114.1458292838     16.277     -2.677     -1.460   -0.018       1 
 395040.00    30.4736122203   114.1458043135     16.290     -2.202     -1.230    0.016       1 
 395041.00    30.4736016575   114.1457824373     16.297     -1.998     -1.104    0.005       1 
 395042.00    30.4735920522   114.1457626727     16.305     -1.952     -1.104    0.014       1 
 395043.00    30.4735798461   114.1457375064     16.323     -2.980     -1.676    0.036       1 
 395044.00    30.4735616745   114.1456997952     16.346     -4.276     -2.387    0.046       1 
 395045.00    30.4735373502   114.1456492537     16.376     -5.395     -3.004    0.045       1 
 395046.00    30.4735079097   114.1455877397     16.430     -6.371     -3.510    0.036       1 
 395047.00    30.4734744812   114.1455164163     16.472     -7.273     -3.922    0.011       1 
 395048.00    30.4734372901   114.1454361836     16.523     -8.109     -4.319    0.025       1 
 395049.00    30.4733966252   114.1453480034     16.584     -8.802     -4.658    0.038       1 
 395050.00    30.4733528718   114.1452534929     16.626     -9.354     -4.993   -0.007       1 
 395051.00    30.4733062722   114.1451534700     16.666     -9.847     -5.316    0.039       1 
 395052.00    30.4732567146   114.1450488171     16.727    -10.259     -5.665    0.084       1 
 395053.00    30.4732041893   114.1449399596     16.793    -10.654     -5.968    0.077       1 
 395054.00    30.4731494117   114.1448265543     16.848    -11.126     -6.141    0.046       1 
 395055.00    30.4730933038   114.1447082850     16.892    -11.557     -6.325    0.023       1 
 395056.00    30.4730355380   114.1445857730     16.927    -11.876     -6.407    0.055       1 
 395057.00    30.4729781574   114.1444629591     16.960    -11.762     -6.342   -0.014       1 
 395058.00    30.4729205746   114.1443403709     16.991    -11.815     -6.417    0.066       1 
 395059.00    30.4728624495   114.1442163256     17.005    -12.004     -6.481   -0.011       1 
 395060.00    30.4728038380   114.1440912263     16.974    -11.948     -6.459   -0.027       1 
 395061.00    30.4727459078   114.1439674468     16.946    -11.924     -6.436   -0.013       1 
 395062.00    30.4726873337   114.1438421627     16.887    -12.122     -6.541   -0.039       1 
