GPSTime         Latitude        Longitude      H-Ell      Vel-N      Vel-E    Vel-U       Q  
(sec)            (Deg)            (Deg)        (m)      (m/s)      (m/s)    (m/s)          
319187.000    40.1993389338   116.2227673315     57.010    -25.918      9.509    0.266       1 
319188.000    40.1991046649   116.2228795264     57.167    -26.032      9.586    0.145       1 
319189.000    40.1988708472   116.2229914809     57.244    -25.841      9.481    0.035       1 
319190.000    40.1986390406   116.2231026840     57.156    -25.676      9.493   -0.141       1 
319191.000    40.1984081763   116.2232140736     56.978    -25.561      9.455   -0.217       1 
319192.000    40.1981793100   116.2233246898     56.654    -25.204      9.412   -0.459       1 
319193.000    40.1979537825   116.2234351187     56.169    -24.851      9.445   -0.615       1 
319194.000    40.1977316946   116.2235467623     55.520    -24.503      9.537   -0.775       1 
319195.000    40.1975123512   116.2236584235     54.766    -24.227      9.458   -0.759       1 
319196.000    40.1972948158   116.2237683556     53.988    -24.082      9.261   -0.759       1 
319197.000    40.1970789799   116.2238766974     53.234    -23.843      9.200   -0.804       2 
319198.000    40.1968651250   116.2239843236     52.444    -23.632      9.134   -0.781       2 
319199.000    40.1966531559   116.2240914203     51.685    -23.439      9.087   -0.769       2 
319200.000    40.1964428748   116.2241976497     50.922    -23.265      9.000   -0.701       1 
319201.000    40.1962342759   116.2243026397     50.247    -23.074      8.878   -0.720       1 
319202.000    40.1960273865   116.2244058580     49.579    -22.871      8.698   -0.590       1 
319203.000    40.1958223327   116.2245070351     49.005    -22.682      8.536   -0.466       1 
319204.000    40.1956194197   116.2246064196     48.588    -22.388      8.368   -0.403       1 
319205.000    40.1954190315   116.2247042488     48.301    -22.158      8.300   -0.241       1 
319206.000    40.1952198517   116.2248019272     48.146    -22.136      8.332   -0.074       1 
319207.000    40.1950203311   116.2249001729     48.043    -22.192      8.383   -0.114       1 
319208.000    40.1948205434   116.2249989451     47.973    -22.159      8.423   -0.048       1 
319209.000    40.1946213766   116.2250976659     47.881    -22.093      8.395   -0.073       1 
319210.000    40.1944226377   116.2251964822     47.774    -22.047      8.436   -0.099       2 
319211.000    40.1942239718   116.2252956060     47.656    -22.051      8.444   -0.099       2 
319212.000    40.1940252693   116.2253946022     47.564    -22.060      8.424   -0.079       2 
319213.000    40.1938270300   116.2254934200     47.493    -21.975      8.410   -0.088       2 
319214.000    40.1936290171   116.2255920508     47.411    -22.009      8.391   -0.113       2 
319215.000    40.1934306216   116.2256905076     47.311    -22.011      8.358   -0.101       1 
319216.000    40.1932324234   116.2257883322     47.216    -22.038      8.278   -0.053       1 
319217.000    40.1930337709   116.2258860002     47.099    -22.071      8.366   -0.140       1 
319218.000    40.1928346400   116.2259847880     46.980    -22.141      8.452   -0.077       1 
319219.000    40.1926346905   116.2260842665     46.887    -22.259      8.455   -0.085       1 
319220.000    40.1924336439   116.2261832110     46.785    -22.356      8.390   -0.106       1 
319221.000    40.1922324048   116.2262815811     46.685    -22.392      8.395   -0.069       1 
319222.000    40.1920301944   116.2263813923     46.574    -22.534      8.592   -0.094       1 
319223.000    40.1918264208   116.2264834073     46.485    -22.731      8.765   -0.058       1 
319224.000    40.1916211769   116.2265868934     46.518    -22.872      8.854    0.092       2 
319225.000    40.1914152246   116.2266914301     46.697    -22.866      8.952    0.234       2 
319226.000    40.1912092249   116.2267966005     47.004    -22.880      8.956    0.389       1 
319227.000    40.1910033002   116.2269013221     47.451    -22.861      8.887    0.553       1 
319228.000    40.1907979704   116.2270053436     47.899    -22.723      8.800    0.574       1 
319229.000    40.1905940176   116.2271084031     48.347    -22.582      8.741    0.452       1 
319230.000    40.1903912224   116.2272109219     48.799    -22.455      8.714    0.457       1 
319231.000    40.1901896397   116.2273132293     49.234    -22.329      8.724    0.396       1 
319232.000    40.1899891554   116.2274157749     49.625    -22.193      8.743    0.341       1 
319233.000    40.1897896847   116.2275185618     49.943    -22.095      8.762    0.254       1 
319234.000    40.1895906303   116.2276212875     50.201    -22.140      8.705    0.231       1 
319235.000    40.1893910383   116.2277229986     50.378    -22.197      8.634    0.134       1 
319236.000    40.1891911843   116.2278241756     50.546    -22.200      8.580    0.277       1 
319237.000    40.1889916095   116.2279246367     50.672    -22.105      8.541    0.002       1 
319238.000    40.1887926580   116.2280247571     50.667    -22.063      8.534   -0.057       1 
319239.000    40.1885940485   116.2281249759     50.590    -22.042      8.537   -0.140       1 
319240.000    40.1883955744   116.2282252528     50.362    -22.066      8.511   -0.491       1 
319241.000    40.1881974367   116.2283245719     50.113    -21.986      8.424   -0.202       1 
319242.000    40.1879995906   116.2284234408     49.836    -22.002      8.419   -0.305       1 
319243.000    40.1878007343   116.2285231259     49.514    -22.178      8.549   -0.357       1 
319244.000    40.1875998682   116.2286244593     49.116    -22.463      8.680   -0.426       1 
319245.000    40.1873961381   116.2287272945     48.640    -22.802      8.837   -0.531       1 
319246.000    40.1871890793   116.2288318697     48.090    -23.161      8.985   -0.564       1 
319247.000    40.1869783829   116.2289380252     47.523    -23.642      9.101   -0.538       1 
319248.000    40.1867629516   116.2290459376     46.951    -24.189      9.274   -0.576       1 
319249.000    40.1865428324   116.2291557579     46.350    -24.689      9.447   -0.589       1 
319250.000    40.1863185467   116.2292682972     45.771    -25.130      9.719   -0.548       1 
319251.000    40.1860909142   116.2293836639     45.245    -25.386      9.897   -0.530       2 
319252.000    40.1858622061   116.2295003732     44.795    -25.380      9.936   -0.403       1 
319253.000    40.1856347828   116.2296165480     44.424    -25.118      9.839   -0.305       1 
319254.000    40.1854104217   116.2297314428     44.133    -24.726      9.724   -0.261       1 
319255.000    40.1851892135   116.2298451575     43.905    -24.412      9.665   -0.226       1 
319256.000    40.1849707365   116.2299580472     43.752    -24.179      9.581   -0.126       1 
319257.000    40.1847534813   116.2300707283     43.658    -24.044      9.584   -0.058       1 
319258.000    40.1845379715   116.2301827139     43.600    -23.719      9.484   -0.076       1 
319259.000    40.1843257935   116.2302923508     43.539    -23.389      9.172   -0.073       0 
319260.000    40.1841162997   116.2303986835     43.480    -23.155      8.972   -0.047       0 
319261.000    40.1839090905   116.2305037543     43.445    -22.890      8.907   -0.025       0 
319262.000    40.1837040210   116.2306079045     43.390    -22.683      8.824   -0.061       0 
319263.000    40.1835003370   116.2307113591     43.316    -22.535      8.835   -0.087       0 
319264.000    40.1832984504   116.2308146800     43.284    -22.264      8.795   -0.098       0 
319265.000    40.1830987531   116.2309178588     43.187    -22.092      8.781   -0.095       0 
319266.000    40.1829002256   116.2310208608     43.079    -22.086      8.742    0.047       0 
319267.000    40.1827022167   116.2311230531     43.087    -21.937      8.699   -0.065       0 
319268.000    40.1825053700   116.2312257412     43.045    -21.799      8.810   -0.033       0 
319269.000    40.1823086360   116.2313278035     42.999    -21.953      8.554   -0.059       2 
319270.000    40.1821095688   116.2314266081     42.942    -22.232      8.385   -0.067       2 
319271.000    40.1819085835   116.2315254035     42.895    -22.411      8.436   -0.009       2 
319272.000    40.1817066228   116.2316247626     42.843    -22.378      8.463   -0.085       0 
319273.000    40.1815055494   116.2317238081     42.769    -22.335      8.441   -0.058       0 
319274.000    40.1813041979   116.2318231967     42.705    -22.372      8.523   -0.139       1 
319275.000    40.1811029094   116.2319247047     42.631    -22.350      8.757   -0.064       1 
319276.000    40.1809012898   116.2320279591     42.572    -22.414      8.844   -0.080       0 
319277.000    40.1806991397   116.2321324198     42.465    -22.485      8.953   -0.091       0 
319278.000    40.1804962135   116.2322381675     42.392    -22.600      9.052   -0.120       0 
319279.000    40.1802918749   116.2323448253     42.291    -22.792      9.094   -0.090       0 
319280.000    40.1800856809   116.2324520592     42.226    -22.999      9.165   -0.063       0 
319281.000    40.1798771997   116.2325600779     42.134    -23.317      9.260   -0.092       0 
319282.000    40.1796654660   116.2326696582     42.039    -23.694      9.429   -0.054       0 
319283.000    40.1794503703   116.2327813126     41.948    -24.077      9.576   -0.063       0 
319284.000    40.1792318264   116.2328944549     41.861    -24.469      9.700   -0.130       0 
319285.000    40.1790101733   116.2330089384     41.761    -24.730      9.793   -0.121       2 
319286.000    40.1787865593   116.2331243851     41.660    -24.939      9.879   -0.094       2 
319287.000    40.1785610991   116.2332404955     41.576    -25.125      9.921   -0.116       1 
319288.000    40.1783339801   116.2333572950     41.488    -25.312      9.971   -0.097       1 
319289.000    40.1781053033   116.2334747381     41.407    -25.480     10.035   -0.067       2 
319290.000    40.1778751487   116.2335928426     41.353    -25.634     10.087   -0.052       2 
319291.000    40.1776435823   116.2337118857     41.294    -25.802     10.183   -0.054       1 
319292.000    40.1774108488   116.2338327330     41.231    -25.909     10.379   -0.086       1 
319293.000    40.1771772185   116.2339552620     41.172    -25.925     10.471   -0.061       1 
319294.000    40.1769442372   116.2340781286     41.120    -25.821     10.474   -0.033       1 
319295.000    40.1767118228   116.2342011146     41.078    -25.790     10.469   -0.046       0 
319296.000    40.1764800302   116.2343235386     41.024    -25.634     10.390   -0.054       1 
319297.000    40.1762499694   116.2344446967     40.967    -25.466     10.243   -0.064       1 
319298.000    40.1760207996   116.2345641426     40.921    -25.466     10.097   -0.033       1 
319299.000    40.1757913064   116.2346819759     40.839    -25.471     10.009   -0.070       1 
319300.000    40.1755624695   116.2347993240     40.755    -25.339      9.997   -0.013       1 
319301.000    40.1753345470   116.2349166151     40.696    -25.270     10.011   -0.037       1 
319302.000    40.1751085209   116.2350345555     40.638    -24.924     10.066   -0.123       1 
319303.000    40.1748861668   116.2351530103     40.567    -24.436     10.088   -0.035       1 
319304.000    40.1746682258   116.2352710067     40.518    -23.985      9.997   -0.020       1 
319305.000    40.1744542698   116.2353874915     40.508    -23.549      9.823   -0.056       1 
319306.000    40.1742439927   116.2355016447     40.455    -23.159      9.592   -0.017       1 
319307.000    40.1740369663   116.2356125402     40.386    -22.821      9.284   -0.061       1 
319308.000    40.1738328813   116.2357197197     40.305    -22.519      8.986   -0.098       1 
319309.000    40.1736318420   116.2358234566     40.254    -22.189      8.627   -0.052       1 
319310.000    40.1734331226   116.2359213858     40.190    -21.973      8.039   -0.078       1 
319311.000    40.1732359728   116.2360121508     40.132    -21.845      7.452   -0.027       1 
319312.000    40.1730399721   116.2360962568     40.088    -21.689      6.910   -0.011       1 
319313.000    40.1728452674   116.2361737255     40.046    -21.561      6.263   -0.059       1 
319314.000    40.1726516075   116.2362427487     40.015    -21.438      5.572   -0.037       1 
319315.000    40.1724592937   116.2363055507     40.003    -21.330      5.160    0.030       1 
319316.000    40.1722668241   116.2363643731     39.978    -21.438      4.901   -0.046       0 
319317.000    40.1720741901   116.2364210562     39.960    -21.317      4.741   -0.014       0 
319318.000    40.1718819107   116.2364758574     39.935    -21.429      4.621   -0.050       0 
319319.000    40.1716877401   116.2365299012     39.889    -21.593      4.591   -0.107       0 
319320.000    40.1714941659   116.2365837068     39.843    -21.318      4.621   -0.063       1 
319321.000    40.1713034745   116.2366380046     39.784    -21.045      4.616   -0.037       1 
319322.000    40.1711151247   116.2366919629     39.752    -20.831      4.552   -0.075       1 
319323.000    40.1709273346   116.2367451424     39.715    -20.920      4.517   -0.037       1 
319324.000    40.1707375651   116.2367982355     39.647    -21.229      4.556   -0.108       1 
319325.000    40.1705459873   116.2368519883     39.579    -21.222      4.607   -0.047       1 
319326.000    40.1703562094   116.2369057749     39.537    -20.937      4.547   -0.064       0 
319327.000    40.1701677335   116.2369589481     39.459    -20.902      4.551   -0.058       0 
319328.000    40.1699799729   116.2370117567     39.436    -20.822      4.464    0.036       0 
319329.000    40.1697919852   116.2370639991     39.422    -20.992      4.430   -0.017       0 
319330.000    40.1696010469   116.2371139631     39.432    -21.427      4.112    0.005       0 
319331.000    40.1694058716   116.2371612386     39.398    -21.907      4.015   -0.033       0 
319332.000    40.1692068864   116.2372095735     39.359    -22.297      4.160   -0.027       0 
319333.000    40.1690041424   116.2372586331     39.328    -22.704      4.195   -0.034       0 
319334.000    40.1687994573   116.2373077754     39.304    -22.703      4.192   -0.027       0 
319335.000    40.1685952283   116.2373579898     39.260    -22.681      4.325   -0.006       0 
319336.000    40.1683914004   116.2374103026     39.238    -22.605      4.537   -0.034       2 
319337.000    40.1681881856   116.2374646336     39.225    -22.543      4.709   -0.001       2 
319338.000    40.1679857020   116.2375207500     39.216    -22.389      4.812   -0.048       0 
319339.000    40.1677853719   116.2375770425     39.191    -22.090      4.715   -0.016       0 
319340.000    40.1675880958   116.2376321456     39.173    -21.759      4.679   -0.032       0 
319341.000    40.1673935438   116.2376869925     39.169    -21.446      4.649   -0.032       0 
319342.000    40.1672016750   116.2377412885     39.131    -21.157      4.620   -0.004       1 
319343.000    40.1670123916   116.2377946595     39.137    -20.881      4.481    0.038       1 
319344.000    40.1668256503   116.2378471523     39.119    -20.597      4.460   -0.001       1 
319345.000    40.1666413318   116.2378987354     39.113    -20.352      4.310   -0.058       1 
319346.000    40.1664585935   116.2379489354     39.078    -20.197      4.295   -0.030       1 
319347.000    40.1662778905   116.2379994651     39.061    -19.922      4.319   -0.027       1 
319348.000    40.1660994627   116.2380496439     39.016    -19.708      4.229   -0.026       1 
319349.000    40.1659233662   116.2380991075     39.034    -19.447      4.187    0.021       1 
319350.000    40.1657488002   116.2381491357     39.073    -19.329      4.339    0.030       1 
319351.000    40.1655741811   116.2382010975     39.086    -19.471      4.482    0.037       1 
319352.000    40.1653987114   116.2382552620     39.166    -19.510      4.704    0.074       1 
319353.000    40.1652226693   116.2383132034     39.188    -19.558      5.144   -0.011       1 
319354.000    40.1650465105   116.2383770172     39.129    -19.532      5.732   -0.092       1 
319355.000    40.1648704541   116.2384473208     39.034    -19.589      6.199   -0.134       1 
319356.000    40.1646943716   116.2385213679     38.973    -19.544      6.414   -0.032       1 
319357.000    40.1645183146   116.2385986436     38.910    -19.578      6.769   -0.056       1 
319358.000    40.1643417696   116.2386807718     38.862    -19.651      7.230   -0.031       1 
319359.000    40.1641646098   116.2387687314     38.778    -19.638      7.797   -0.119       1 
319360.000    40.1639882833   116.2388638081     38.696    -19.533      8.364   -0.087       1 
319361.000    40.1638119605   116.2389645155     38.614    -19.664      8.777   -0.084       1 
319362.000    40.1636336258   116.2390706564     38.519    -19.937      9.293   -0.118       1 
319363.000    40.1634527403   116.2391830116     38.397    -20.240      9.844   -0.119       1 
319364.000    40.1632691435   116.2393013058     38.291    -20.566     10.294   -0.082       0 
319365.000    40.1630828675   116.2394238515     38.172    -20.750     10.562   -0.112       0 
319366.000    40.1628954615   116.2395491267     38.117    -20.863     10.767   -0.026       0 
319367.000    40.1627069623   116.2396764252     38.102    -21.012     10.889   -0.022       0 
319368.000    40.1625166543   116.2398043077     38.081    -21.231     10.935   -0.035       0 
319369.000    40.1623237664   116.2399330446     38.022    -21.630     11.047   -0.090       1 
319370.000    40.1621273572   116.2400634222     37.984    -22.000     11.192   -0.005       1 
319371.000    40.1619278361   116.2401954042     37.940    -22.332     11.306   -0.037       1 
319372.000    40.1617255777   116.2403294461     37.882    -22.609     11.526   -0.041       1 
319373.000    40.1615211680   116.2404662916     37.834    -22.781     11.761   -0.044       1 
319374.000    40.1613151090   116.2406055522     37.776    -22.966     11.950   -0.061       1 
319375.000    40.1611076213   116.2407467554     37.724    -23.128     12.112   -0.059       1 
319376.000    40.1608984802   116.2408893984     37.677    -23.327     12.204   -0.038       1 
319377.000    40.1606876086   116.2410329007     37.648    -23.541     12.259   -0.049       1 
319378.000    40.1604749799   116.2411765637     37.615    -23.694     12.246   -0.022       1 
319379.000    40.1602607356   116.2413201001     37.587    -23.897     12.237    0.011       1 
319380.000    40.1600449094   116.2414642001     37.561    -24.043     12.311   -0.051       1 
319381.000    40.1598276566   116.2416092661     37.557    -24.187     12.386    0.040       1 
319382.000    40.1596095703   116.2417551360     37.572    -24.238     12.447    0.065       1 
319383.000    40.1593912303   116.2419015749     37.589    -24.246     12.494    0.020       1 
319384.000    40.1591732748   116.2420482617     37.632    -24.125     12.491    0.024       0 
319385.000    40.1589565410   116.2421948326     37.671    -24.014     12.478    0.005       0 
319386.000    40.1587409251   116.2423409439     37.698    -23.815     12.414    0.043       1 
319387.000    40.1585274795   116.2424859147     37.718    -23.619     12.314    0.002       1 
319388.000    40.1583148218   116.2426301216     37.738    -23.630     12.264    0.016       1 
319389.000    40.1581021534   116.2427733896     37.728    -23.558     12.132   -0.047       1 
319390.000    40.1578911117   116.2429149168     37.712    -23.378     12.014   -0.035       1 
319391.000    40.1576810394   116.2430553367     37.694    -23.231     11.905   -0.035       1 
319392.000    40.1574723805   116.2431944363     37.639    -23.102     11.776   -0.055       1 
