   GPSTime         Latitude        Longitude      H-Ell      Vel-N      Vel-E    Vel-U   Q
     (sec)            (Deg)            (Deg)        (m)      (m/s)      (m/s)    (m/s)  
 568015.00    30.4992545516   114.5394251038     28.820     -4.453      8.768    0.056       1 
 568016.00    30.4993342577   114.5393786331     28.899     -4.440      8.907    0.100       1 
 568017.00    30.4994152932   114.5393319669     28.991     -4.511      9.034    0.082       1 
 568018.00    30.4994971438   114.5392842160     29.095     -4.607      9.107    0.083       1 
 568019.00    30.4995797561   114.5392353616     29.195     -4.728      9.197    0.111       1 
 568020.00    30.4996632470   114.5391852254     29.289     -4.857      9.254    0.074       1 
 568021.00    30.4997475947   114.5391342703     29.378     -4.940      9.334    0.210       1 
 568022.00    30.4998323779   114.5390823573     29.514     -4.957      9.503    0.040       1 
 568023.00    30.4999172062   114.5390307998     29.560     -4.908      9.303    0.092       1 
 568024.00    30.5000005348   114.5389799451     29.621     -4.768      9.241    0.081       1 
 568025.00    30.5000844344   114.5389289663     29.702     -4.938      9.468    0.003       1 
 568026.00    30.5001694478   114.5388774765     29.783     -4.928      9.467    0.037       1 
 568027.00    30.5002550808   114.5388259764     29.910     -4.948      9.486    0.200       1 
 568028.00    30.5003407812   114.5387748428     30.025     -4.907      9.414    0.146       1 
 568029.00    30.5004255440   114.5387242725     30.160     -4.836      9.383    0.126       1 
 568030.00    30.5005096435   114.5386740974     30.269     -4.794      9.321    0.081       1 
 568031.00    30.5005925336   114.5386243206     30.366     -4.732      9.064    0.155       1 
 568032.00    30.5006737688   114.5385755165     30.475     -4.686      8.962    0.134       1 
 568033.00    30.5007537215   114.5385268684     30.561     -4.671      8.921    0.044       1 
 568034.00    30.5008321806   114.5384783345     30.689     -4.705      8.601    0.109       1 
 568035.00    30.5009086041   114.5384316105     30.796     -4.237      8.348    0.002       1 
 568036.00    30.5009803854   114.5383865167     30.905     -4.496      7.743    0.042       1 
 568037.00    30.5010472903   114.5383446301     31.025     -3.907      7.210    0.076       1 
 568038.00    30.5011107546   114.5383062240     31.111     -3.502      6.952    0.212       1 
 568039.00    30.5011700727   114.5382722546     31.227     -3.082      6.278    0.092       1 
 568040.00    30.5012261441   114.5382405453     31.308     -2.979      6.165    0.052       1 
 568041.00    30.5012819132   114.5382089306     31.420     -3.101      6.234    0.103       1 
 568042.00    30.5013391424   114.5381761714     31.529     -3.285      6.447    0.128       1 
 568043.00    30.5013980474   114.5381409274     31.645     -3.574      6.562    0.081       1 
 568044.00    30.5014567567   114.5381016077     31.756     -3.991      6.516    0.155       1 
 568045.00    30.5015153642   114.5380587702     31.913     -4.214      6.497    0.136       1 
 568046.00    30.5015737228   114.5380122883     32.093     -4.764      6.457    0.170       1 
 568047.00    30.5016306370   114.5379611023     32.173     -5.084      6.233    0.090       1 
 568048.00    30.5016850912   114.5379057800     32.212     -5.586      5.879    0.049       1 
 568049.00    30.5017363319   114.5378462847     32.218     -5.870      5.529   -0.030       1 
 568050.00    30.5017840128   114.5377829814     32.226     -6.236      4.991    0.053       1 
 568051.00    30.5018255473   114.5377160109     32.277     -6.633      4.216    0.055       1 
 568052.00    30.5018580524   114.5376438023     32.267     -7.165      3.096   -0.001       1 
 568053.00    30.5018810048   114.5375669735     32.290     -7.577      2.124   -0.001       1 
 568054.00    30.5018941961   114.5374861011     32.262     -8.017      0.945   -0.011       1 
 568055.00    30.5018958204   114.5373995450     32.242     -8.572     -0.353    0.032       1 
 568056.00    30.5018883663   114.5373071207     32.246     -9.126     -1.210   -0.028       1 
 568057.00    30.5018725088   114.5372132814     32.254     -8.872     -2.019    0.034       1 
 568058.00    30.5018513645   114.5371219712     32.125     -8.480     -2.525   -0.237       1 
 568059.00    30.5018268097   114.5370318353     32.110     -8.720     -2.828   -0.015       1 
 568060.00    30.5017989226   114.5369401824     32.079     -8.935     -3.256   -0.067       1 
 568061.00    30.5017677046   114.5368461216     32.006     -9.173     -3.544   -0.065       1 
 568062.00    30.5017351037   114.5367485606     31.946     -9.549     -3.649   -0.089       1 
 568063.00    30.5017007409   114.5366474960     31.877     -9.892     -3.858   -0.088       1 
 568064.00    30.5016657326   114.5365425672     31.802    -10.251     -3.926   -0.069       1 
 568065.00    30.5016303059   114.5364335924     31.724    -10.618     -3.956   -0.067       1 
 568066.00    30.5015944818   114.5363208724     31.667    -11.016     -4.007   -0.072       1 
 568067.00    30.5015576664   114.5362048056     31.595    -11.271     -4.122   -0.075       1 
 568068.00    30.5015213426   114.5360849157     31.524    -11.742     -3.913   -0.068       1 
 568069.00    30.5014867366   114.5359601872     31.453    -12.163     -3.849   -0.138       1 
 568070.00    30.5014519165   114.5358311706     31.368    -12.563     -3.956   -0.055       1 
 568071.00    30.5014136039   114.5356992784     31.285    -12.770     -4.454   -0.068       1 
 568072.00    30.5013715279   114.5355651617     31.230    -12.998     -4.774   -0.088       1 
 568073.00    30.5013274176   114.5354285151     31.152    -13.256     -4.948   -0.069       1 
 568074.00    30.5012819851   114.5352890549     31.083    -13.498     -5.119   -0.081       1 
 568075.00    30.5012352006   114.5351476827     30.986    -13.609     -5.185   -0.074       1 
 568076.00    30.5011883466   114.5350070088     30.901    -13.359     -5.133   -0.092       1 
 568077.00    30.5011424076   114.5348689254     30.817    -13.244     -5.051   -0.083       1 
 568078.00    30.5010968245   114.5347303876     30.728    -13.398     -5.052   -0.085       1 
 568079.00    30.5010509823   114.5345906361     30.638    -13.391     -5.098   -0.091       1 
 568080.00    30.5010052737   114.5344525849     30.554    -13.097     -5.057   -0.055       1 
 568081.00    30.5009602950   114.5343178719     30.457    -12.760     -4.906   -0.088       1 
 568082.00    30.5009157088   114.5341867905     30.380    -12.370     -4.948   -0.058       1 
 568083.00    30.5008713220   114.5340595905     30.328    -12.066     -4.847   -0.064       1 
 568084.00    30.5008282953   114.5339357130     30.250    -11.765     -4.674   -0.094       1 
 568085.00    30.5007870190   114.5338148626     30.173    -11.465     -4.458   -0.076       1 
 568086.00    30.5007472709   114.5336971182     30.111    -11.145     -4.323   -0.051       1 
 568087.00    30.5007086347   114.5335826222     30.042    -10.809     -4.208   -0.078       1 
 568088.00    30.5006712617   114.5334715030     29.977    -10.530     -4.079   -0.037       1 
 568089.00    30.5006351469   114.5333637606     29.912    -10.174     -3.935   -0.088       1 
 568090.00    30.5006003606   114.5332597175     29.878     -9.805     -3.805   -0.026       1 
 568091.00    30.5005669142   114.5331594255     29.818     -9.468     -3.630   -0.079       1 
 568092.00    30.5005344053   114.5330614587     29.759     -9.364     -3.591   -0.020       1 
 568093.00    30.5005024218   114.5329643420     29.704     -9.284     -3.559   -0.049       1 
 568094.00    30.5004701501   114.5328677586     29.646     -9.264     -3.601   -0.059       1 
 568095.00    30.5004371596   114.5327712406     29.578     -9.271     -3.698   -0.070       1 
 568096.00    30.5004039708   114.5326743659     29.517     -9.287     -3.685   -0.077       1 
 568097.00    30.5003714371   114.5325784036     29.466     -9.066     -3.528   -0.045       1 
 568098.00    30.5003402428   114.5324843765     29.412     -8.976     -3.443   -0.054       1 
 568099.00    30.5003095205   114.5323917339     29.345     -8.710     -3.395   -0.072       1 
 568100.00    30.5002793193   114.5323018809     29.293     -8.578     -3.340   -0.045       1 
 568101.00    30.5002496241   114.5322139692     29.244     -8.249     -3.243   -0.049       1 
 568102.00    30.5002210736   114.5321294205     29.194     -7.945     -3.110   -0.026       1 
 568103.00    30.5001940111   114.5320487263     29.150     -7.527     -2.898   -0.067       1 
 568104.00    30.5001686945   114.5319723508     29.106     -7.100     -2.696   -0.049       1 
 568105.00    30.5001450389   114.5319007142     29.064     -6.605     -2.550   -0.051       1 
 568106.00    30.5001225700   114.5318345974     29.034     -6.038     -2.405   -0.030       1 
 568107.00    30.5001016705   114.5317752751     28.996     -5.346     -2.196   -0.043       1 
 568108.00    30.5000827485   114.5317238304     28.969     -4.591     -1.981   -0.010       1 
 568109.00    30.5000662165   114.5316795572     28.957     -3.894     -1.614   -0.028       1 
 568110.00    30.5000542418   114.5316406282     28.929     -3.612     -1.180   -0.031       1 
 568111.00    30.5000462306   114.5316031265     28.910     -3.594     -0.800   -0.030       1 
 568112.00    30.5000403193   114.5315643629     28.876     -3.806     -0.634   -0.048       1 
 568113.00    30.5000345576   114.5315268291     28.836     -3.421     -0.663   -0.041       1 
 568114.00    30.5000271144   114.5314933582     28.813     -2.975     -0.833   -0.027       1 
 568115.00    30.5000188586   114.5314650569     28.794     -2.557     -0.897   -0.023       1 
 568116.00    30.5000100945   114.5314395427     28.781     -2.282     -0.931   -0.008       1 
 568117.00    30.5000028160   114.5314197312     28.773     -1.541     -0.649   -0.005       1 
 568118.00    30.4999978070   114.5314062339     28.771     -1.264     -0.520   -0.011       1 
 568119.00    30.4999939353   114.5313919060     28.765     -1.492     -0.423   -0.014       1 
 568120.00    30.4999912349   114.5313726753     28.757     -2.116     -0.335   -0.020       1 
 568121.00    30.4999901259   114.5313484390     28.736     -2.559     -0.151   -0.027       1 
 568122.00    30.4999899708   114.5313177334     28.707     -3.384     -0.040   -0.029       1 
 568123.00    30.4999895188   114.5312775604     28.672     -4.313     -0.076   -0.037       1 
 568124.00    30.4999880818   114.5312310477     28.639     -4.511     -0.179   -0.067       1 
 568125.00    30.4999856428   114.5311831530     28.589     -4.717     -0.257   -0.028       1 
 568126.00    30.4999853750   114.5311323581     28.531     -5.046      0.243   -0.066       1 
 568127.00    30.4999925507   114.5310794888     28.535     -5.096      1.139    0.057       1 
 568128.00    30.5000090445   114.5310277470     28.643     -4.863      2.190    0.140       1 
 568129.00    30.5000340522   114.5309796047     28.838     -4.489      3.235    0.181       1 
 568130.00    30.5000680191   114.5309351050     29.021     -4.248      4.168    0.170       1 
 568131.00    30.5001095174   114.5308933244     29.230     -3.909      4.933    0.196       1 
 568132.00    30.5001578406   114.5308544371     29.440     -3.574      5.723    0.213       1 
 568133.00    30.5002129882   114.5308187701     29.615     -3.390      6.421    0.153       1 
 568134.00    30.5002728108   114.5307823186     29.763     -3.609      6.878    0.137       1 
 568135.00    30.5003363772   114.5307431008     29.951     -3.819      7.285    0.180       1 
 568136.00    30.5004042643   114.5307034122     30.146     -3.742      7.812    0.193       1 
 568137.00    30.5004771732   114.5306655067     30.383     -3.578      8.344    0.270       1 
 568138.00    30.5005544999   114.5306283743     30.622     -3.517      8.821    0.231       1 
 568139.00    30.5006364134   114.5305919465     30.861     -3.504      9.332    0.272       1 
 568140.00    30.5007222819   114.5305555509     31.106     -3.518      9.652    0.241       1 
 568141.00    30.5008113670   114.5305180760     31.383     -3.619     10.056    0.268       1 
 568142.00    30.5009034175   114.5304798854     31.664     -3.756     10.368    0.296       1 
 568143.00    30.5009982390   114.5304403661     31.936     -3.800     10.674    0.286       1 
 568144.00    30.5010958165   114.5304002337     32.221     -3.861     10.993    0.300       1 
 568145.00    30.5011952390   114.5303595245     32.511     -3.874     10.909    0.275       1 
 568146.00    30.5012909542   114.5303203710     32.800     -3.611     10.333    0.262       1 
 568147.00    30.5013810322   114.5302840604     33.044     -3.333      9.633    0.210       1 
 568148.00    30.5014643083   114.5302507042     33.283     -3.037      8.825    0.203       1 
 568149.00    30.5015398294   114.5302204839     33.506     -2.727      7.947    0.192       1 
 568150.00    30.5016081831   114.5301932080     33.700     -2.502      7.222    0.188       1 
 568151.00    30.5016696023   114.5301686471     33.877     -2.223      6.429    0.156       1 
 568152.00    30.5017242646   114.5301468230     34.032     -1.959      5.682    0.145       1 
 568153.00    30.5017738345   114.5301271661     34.177     -1.873      5.539    0.137       1 
 568154.00    30.5018263164   114.5301057621     34.330     -2.219      6.153    0.163       1 
 568155.00    30.5018854273   114.5300801805     34.498     -2.670      6.914    0.176       1 
 568156.00    30.5019512143   114.5300508018     34.688     -2.980      7.664    0.198       1 
 568157.00    30.5020233440   114.5300190285     34.901     -3.152      8.298    0.232       1 
 568158.00    30.5021012278   114.5299854142     35.133     -3.201      8.951    0.243       1 
 568159.00    30.5021848891   114.5299513238     35.371     -3.328      9.566    0.253       1 
 568160.00    30.5022738059   114.5299158955     35.618     -3.442     10.151    0.249       1 
 568161.00    30.5023674904   114.5298791287     35.872     -3.616     10.638    0.271       1 
 568162.00    30.5024652270   114.5298401937     36.152     -3.869     10.919    0.273       1 
 568163.00    30.5025624455   114.5298007727     36.413     -3.760     10.606    0.173       1 
 568164.00    30.5026543874   114.5297627709     36.688     -3.521      9.887    0.248       1 
 568165.00    30.5027408258   114.5297269688     36.948     -3.333      9.399    0.231       1 
 568166.00    30.5028237331   114.5296932903     37.172     -3.127      8.909    0.231       1 
 568167.00    30.5029035432   114.5296611911     37.414     -3.004      8.697    0.247       1 
 568168.00    30.5029805375   114.5296304562     37.637     -2.881      8.394    0.223       1 
 568169.00    30.5030559111   114.5296003165     37.856     -2.918      8.376    0.215       1 
 568170.00    30.5031319824   114.5295696282     38.080     -2.977      8.513    0.222       1 
 568171.00    30.5032072831   114.5295391121     38.299     -2.886      8.181    0.178       1 
 568172.00    30.5032803486   114.5295090776     38.488     -2.821      8.000    0.203       1 
 568173.00    30.5033511949   114.5294800236     38.686     -2.656      7.592    0.176       1 
 568174.00    30.5034173598   114.5294522425     38.906     -2.555      7.025    0.181       1 
 568175.00    30.5034802218   114.5294261437     39.074     -2.467      6.846    0.185       1 
 568176.00    30.5035414282   114.5294011347     39.255     -2.338      6.714    0.190       1 
 568177.00    30.5036015517   114.5293770379     39.422     -2.246      6.593    0.156       1 
 568178.00    30.5036607070   114.5293538559     39.567     -2.149      6.469    0.132       1 
 568179.00    30.5037184814   114.5293308044     39.737     -2.251      6.310    0.197       1 
 568180.00    30.5037751085   114.5293076112     39.900     -2.223      6.272    0.128       1 
 568181.00    30.5038318071   114.5292846170     40.051     -2.202      6.290    0.178       1 
 568182.00    30.5038885864   114.5292615597     40.219     -2.211      6.291    0.157       1 
 568183.00    30.5039454830   114.5292381951     40.383     -2.200      6.269    0.173       1 
 568184.00    30.5040019065   114.5292150015     40.544     -2.238      6.319    0.188       1 
 568185.00    30.5040582163   114.5291917120     40.716     -2.221      6.247    0.192       1 
 568186.00    30.5041141207   114.5291683820     40.882     -2.259      6.215    0.167       1 
 568187.00    30.5041700061   114.5291449833     41.032     -2.221      6.186    0.154       1 
 568188.00    30.5042254395   114.5291220938     41.199     -2.106      6.121    0.202       1 
 568189.00    30.5042800077   114.5291005162     41.358     -2.078      6.044    0.120       1 
 568190.00    30.5043338312   114.5290795676     41.505     -1.926      5.868    0.178       1 
 568191.00    30.5043823820   114.5290610344     41.637     -1.547      4.722    0.115       1 
 568192.00    30.5044201608   114.5290464485     41.757     -1.252      3.670    0.116       1 
 568193.00    30.5044512713   114.5290342889     41.845     -1.274      3.578    0.081       1 
 568194.00    30.5044881849   114.5290199337     41.972     -1.506      4.519    0.131       1 
 568195.00    30.5045322943   114.5290026540     42.121     -1.760      5.281    0.172       1 
 568196.00    30.5045806757   114.5289834748     42.208     -1.763      5.128    0.062       1 
 568197.00    30.5046231951   114.5289665399     42.299     -1.531      4.206    0.158       1 
 568198.00    30.5046600776   114.5289512910     42.414     -1.430      4.013    0.092       1 
 568199.00    30.5046970701   114.5289352336     42.526     -1.724      4.225    0.117       1 
 568200.00    30.5047363183   114.5289150068     42.661     -2.116      4.492    0.107       1 
 568201.00    30.5047774273   114.5288897566     42.805     -2.736      4.636    0.165       1 
 568202.00    30.5048185051   114.5288583758     42.953     -3.157      4.384    0.137       1 
 568203.00    30.5048546357   114.5288238827     43.103     -3.343      3.772    0.144       1 
 568204.00    30.5048868969   114.5287872727     43.212     -3.692      3.448    0.107       1 
 568205.00    30.5049158690   114.5287475701     43.330     -3.792      2.989    0.097       1 
 568206.00    30.5049393704   114.5287086225     43.315     -3.570      2.359   -0.070       1 
 568207.00    30.5049572164   114.5286726323     43.279     -3.350      1.779   -0.035       1 
 568208.00    30.5049696820   114.5286378278     43.212     -3.328      1.139   -0.115       1 
 568209.00    30.5049759409   114.5286020561     43.106     -3.476      0.416   -0.088       1 
 568210.00    30.5049729414   114.5285629509     42.989     -3.964     -0.715   -0.111       1 
 568211.00    30.5049580798   114.5285200181     42.859     -4.284     -2.030   -0.109       1 
 568212.00    30.5049351930   114.5284737380     42.704     -4.753     -2.815   -0.177       1 
 568213.00    30.5049070946   114.5284205123     42.511     -5.495     -3.333   -0.201       1 
 568214.00    30.5048752549   114.5283594190     42.305     -6.236     -3.742   -0.208       1 
 568215.00    30.5048399848   114.5282909612     42.089     -6.886     -4.069   -0.212       1 
 568216.00    30.5048019866   114.5282160247     41.867     -7.489     -4.341   -0.213       1 
 568217.00    30.5047625476   114.5281353990     41.679     -8.008     -4.413   -0.157       1 
 568218.00    30.5047224991   114.5280495423     41.528     -8.446     -4.537   -0.148       1 
