   GPSTime         Latitude        Longitude      H-Ell      Vel-N      Vel-E    Vel-U   Q
     (sec)            (Deg)            (Deg)        (m)      (m/s)      (m/s)    (m/s)  
 568015.00    30.4992572610   114.5394180264     28.260     -4.453      8.766    0.053       1 
 568016.00    30.4993370329   114.5393716048     28.338     -4.441      8.916    0.113       1 
 568017.00    30.4994180646   114.5393249031     28.433     -4.526      9.034    0.096       1 
 568018.00    30.4994998868   114.5392771516     28.536     -4.620      9.111    0.101       1 
 568019.00    30.4995824759   114.5392282933     28.635     -4.723      9.204    0.117       1 
 568020.00    30.4996659397   114.5391782280     28.719     -4.859      9.281    0.113       1 
 568021.00    30.4997502998   114.5391271508     28.823     -4.942      9.354    0.238       1 
 568022.00    30.4998350062   114.5390753208     28.945     -4.969      9.462   -0.004       1 
 568023.00    30.4999198683   114.5390237150     28.999     -4.913      9.317    0.116       1 
 568024.00    30.5000031942   114.5389728532     29.061     -4.831      9.232    0.127       1 
 568025.00    30.5000870446   114.5389218579     29.140     -4.929      9.426   -0.062       1 
 568026.00    30.5001720631   114.5388703835     29.219     -4.944      9.463    0.046       1 
 568027.00    30.5002578097   114.5388188752     29.354     -4.953      9.495    0.218       1 
 568028.00    30.5003434598   114.5387677308     29.467     -4.909      9.425    0.163       1 
 568029.00    30.5004282239   114.5387171508     29.604     -4.840      9.366    0.107       1 
 568030.00    30.5005123142   114.5386669914     29.710     -4.809      9.300    0.067       1 
 568031.00    30.5005952408   114.5386172497     29.805     -4.739      9.074    0.175       1 
 568032.00    30.5006764088   114.5385683343     29.924     -4.677      8.944    0.101       1 
 568033.00    30.5007563047   114.5385197264     30.001     -4.687      8.854   -0.029       1 
 568034.00    30.5008347585   114.5384712004     30.128     -4.662      8.609    0.080       1 
 568035.00    30.5009111135   114.5384243442     30.247     -4.309      8.305    0.011       1 
 568036.00    30.5009829204   114.5383795127     30.327     -4.354      7.711   -0.130       1 
 568037.00    30.5010498413   114.5383374747     30.466     -3.883      7.218    0.065       1 
 568038.00    30.5011135448   114.5382991450     30.556     -3.441      6.917    0.109       1 
 568039.00    30.5011728632   114.5382652510     30.663     -3.070      6.297    0.106       1 
 568040.00    30.5012289468   114.5382335095     30.749     -3.003      6.172    0.084       1 
 568041.00    30.5012847567   114.5382018809     30.865     -3.084      6.236    0.088       1 
 568042.00    30.5013419487   114.5381690664     30.979     -3.290      6.446    0.132       1 
 568043.00    30.5014006354   114.5381337536     31.090     -3.591      6.530    0.054       1 
 568044.00    30.5014590640   114.5380943050     31.201     -4.007      6.490    0.135       1 
 568045.00    30.5015174913   114.5380513773     31.360     -4.247      6.501    0.171       1 
 568046.00    30.5015755803   114.5380048445     31.535     -4.747      6.405    0.084       1 
 568047.00    30.5016321253   114.5379536590     31.601     -5.117      6.202    0.079       1 
 568048.00    30.5016861253   114.5378982684     31.635     -5.584      5.840   -0.003       1 
 568049.00    30.5017369506   114.5378387248     31.640     -5.925      5.506   -0.010       1 
 568050.00    30.5017841302   114.5377753353     31.655     -6.271      4.972    0.061       1 
 568051.00    30.5018249176   114.5377083866     31.708     -6.695      4.166    0.046       1 
 568052.00    30.5018563953   114.5376364080     31.695     -7.261      3.036    0.007       1 
 568053.00    30.5018784627   114.5375599248     31.718     -7.645      2.045   -0.043       1 
 568054.00    30.5018906911   114.5374795613     31.696     -8.104      0.881   -0.016       1 
 568055.00    30.5018914880   114.5373936964     31.677     -8.659     -0.403    0.045       1 
 568056.00    30.5018835428   114.5373018508     31.677     -9.172     -1.258   -0.050       1 
 568057.00    30.5018673897   114.5372084937     31.678     -8.892     -2.070   -0.016       1 
 568058.00    30.5018459297   114.5371176313     31.552     -8.680     -2.486   -0.003       1 
 568059.00    30.5018212942   114.5370276313     31.537     -8.722     -2.859   -0.054       1 
 568060.00    30.5017933010   114.5369362549     31.501     -8.935     -3.281   -0.101       1 
 568061.00    30.5017620423   114.5368422923     31.427     -9.191     -3.549   -0.056       1 
 568062.00    30.5017294179   114.5367447660     31.367     -9.561     -3.679   -0.118       1 
 568063.00    30.5016951110   114.5366436942     31.292     -9.880     -3.862   -0.106       1 
 568064.00    30.5016600914   114.5365387058     31.222    -10.248     -3.915   -0.056       1 
 568065.00    30.5016246821   114.5364296820     31.145    -10.631     -3.950   -0.047       1 
 568066.00    30.5015888817   114.5363169337     31.087    -10.999     -4.001   -0.080       1 
 568067.00    30.5015520737   114.5362008465     31.015    -11.284     -4.105   -0.040       1 
 568068.00    30.5015158798   114.5360807813     30.940    -11.711     -3.920   -0.107       1 
 568069.00    30.5014812867   114.5359559868     30.872    -12.186     -3.839   -0.104       1 
 568070.00    30.5014463292   114.5358269955     30.802    -12.573     -3.979   -0.075       1 
 568071.00    30.5014079325   114.5356952809     30.717    -12.784     -4.466   -0.070       1 
 568072.00    30.5013657996   114.5355613059     30.660    -13.001     -4.790   -0.105       1 
 568073.00    30.5013217027   114.5354246567     30.580    -13.263     -4.955   -0.072       1 
 568074.00    30.5012762197   114.5352852462     30.514    -13.496     -5.120   -0.085       1 
 568075.00    30.5012294439   114.5351439016     30.415    -13.617     -5.211   -0.101       1 
 568076.00    30.5011825721   114.5350032623     30.330    -13.359     -5.141   -0.103       1 
 568077.00    30.5011366520   114.5348651465     30.246    -13.233     -5.052   -0.095       1 
 568078.00    30.5010910612   114.5347265817     30.160    -13.385     -5.058   -0.106       1 
 568079.00    30.5010452477   114.5345868390     30.066    -13.392     -5.091   -0.079       1 
 568080.00    30.5009995258   114.5344488158     29.981    -13.096     -5.050   -0.046       1 
 568081.00    30.5009545392   114.5343141288     29.884    -12.776     -4.918   -0.090       1 
 568082.00    30.5009098898   114.5341831205     29.810    -12.396     -4.949   -0.036       1 
 568083.00    30.5008655144   114.5340559393     29.755    -12.053     -4.854   -0.085       1 
 568084.00    30.5008225303   114.5339320214     29.675    -11.753     -4.676   -0.108       1 
 568085.00    30.5007812758   114.5338111347     29.597    -11.473     -4.477   -0.093       1 
 568086.00    30.5007415003   114.5336933751     29.540    -11.154     -4.335   -0.059       1 
 568087.00    30.5007028805   114.5335788844     29.468    -10.823     -4.209   -0.066       1 
 568088.00    30.5006655080   114.5334677367     29.405    -10.515     -4.075   -0.045       1 
 568089.00    30.5006293967   114.5333600319     29.337    -10.170     -3.933   -0.089       1 
 568090.00    30.5005945994   114.5332559724     29.305     -9.800     -3.795   -0.018       1 
 568091.00    30.5005611500   114.5331556551     29.247     -9.466     -3.635   -0.088       1 
 568092.00    30.5005286595   114.5330576646     29.187     -9.343     -3.579   -0.022       1 
 568093.00    30.5004966817   114.5329605458     29.132     -9.296     -3.549   -0.025       1 
 568094.00    30.5004643830   114.5328640195     29.074     -9.268     -3.614   -0.073       1 
 568095.00    30.5004313914   114.5327675333     29.004     -9.267     -3.686   -0.057       1 
 568096.00    30.5003981928   114.5326706450     28.945     -9.309     -3.681   -0.052       1 
 568097.00    30.5003656772   114.5325746593     28.893     -9.060     -3.517   -0.036       1 
 568098.00    30.5003344979   114.5324805951     28.839     -8.976     -3.435   -0.044       1 
 568099.00    30.5003037767   114.5323879700     28.772     -8.720     -3.378   -0.040       1 
 568100.00    30.5002735628   114.5322981237     28.721     -8.568     -3.339   -0.053       1 
 568101.00    30.5002438759   114.5322102219     28.670     -8.257     -3.231   -0.025       1 
 568102.00    30.5002153400   114.5321256621     28.619     -7.934     -3.100   -0.023       1 
 568103.00    30.5001882832   114.5320449606     28.575     -7.541     -2.904   -0.063       1 
 568104.00    30.5001629777   114.5319685656     28.531     -7.109     -2.708   -0.057       1 
 568105.00    30.5001393055   114.5318969437     28.490     -6.618     -2.552   -0.042       1 
 568106.00    30.5001168052   114.5318308973     28.460     -6.059     -2.408   -0.015       1 
 568107.00    30.5000958340   114.5317717196     28.422     -5.348     -2.207   -0.056       1 
 568108.00    30.5000768685   114.5317203134     28.398     -4.599     -1.977    0.003       1 
 568109.00    30.5000603897   114.5316760366     28.380     -3.852     -1.592   -0.036       1 
 568110.00    30.5000486540   114.5316366106     28.352     -3.576     -1.136   -0.005       1 
 568111.00    30.5000409909   114.5315984857     28.337     -3.552     -0.757   -0.011       1 
 568112.00    30.5000352959   114.5315594195     28.301     -3.797     -0.626   -0.047       1 
 568113.00    30.5000294517   114.5315219628     28.265     -3.449     -0.687   -0.047       1 
 568114.00    30.5000217144   114.5314889209     28.243     -3.014     -0.871   -0.042       1 
 568115.00    30.5000132115   114.5314610345     28.225     -2.589     -0.923   -0.028       1 
 568116.00    30.5000042826   114.5314358322     28.213     -2.316     -0.946    0.003       1 
 568117.00    30.4999969347   114.5314161830     28.204     -1.553     -0.660   -0.009       1 
 568118.00    30.4999919209   114.5314026699     28.203     -1.254     -0.509   -0.005       1 
 568119.00    30.4999882696   114.5313878924     28.197     -1.432     -0.378   -0.009       1 
 568120.00    30.4999861008   114.5313678288     28.187     -2.029     -0.261   -0.002       1 
 568121.00    30.4999855385   114.5313429307     28.164     -2.514     -0.101   -0.004       1 
 568122.00    30.4999856724   114.5313118940     28.138     -3.368     -0.021   -0.020       1 
 568123.00    30.4999852626   114.5312716977     28.102     -4.331     -0.083   -0.031       1 
 568124.00    30.4999836844   114.5312253537     28.065     -4.534     -0.203   -0.078       1 
 568125.00    30.4999811370   114.5311775729     28.016     -4.699     -0.261   -0.049       1 
 568126.00    30.4999813957   114.5311263409     27.951     -4.953      0.305   -0.068       1 
 568127.00    30.4999896048   114.5310726533     27.962     -4.979      1.256    0.105       1 
 568128.00    30.5000073299   114.5310202918     28.080     -4.750      2.297    0.179       1 
 568129.00    30.5000336933   114.5309718697     28.280     -4.357      3.298    0.144       1 
 568130.00    30.5000686778   114.5309273873     28.464     -4.138      4.217    0.133       1 
 568131.00    30.5001109594   114.5308856718     28.683     -3.845      4.985    0.206       1 
 568132.00    30.5001600383   114.5308470528     28.890     -3.500      5.778    0.217       1 
 568133.00    30.5002156361   114.5308116282     29.059     -3.378      6.424    0.147       1 
 568134.00    30.5002754665   114.5307751775     29.207     -3.618      6.865    0.129       1 
 568135.00    30.5003390881   114.5307359430     29.401     -3.808      7.288    0.174       1 
 568136.00    30.5004071639   114.5306963278     29.599     -3.723      7.825    0.193       1 
 568137.00    30.5004803121   114.5306585699     29.835     -3.579      8.337    0.261       1 
 568138.00    30.5005578451   114.5306215674     30.073     -3.501      8.842    0.243       1 
 568139.00    30.5006398986   114.5305852236     30.314     -3.495      9.326    0.256       1 
 568140.00    30.5007257904   114.5305488096     30.563     -3.528      9.680    0.287       1 
 568141.00    30.5008149049   114.5305114279     30.831     -3.618     10.054    0.265       1 
 568142.00    30.5009069728   114.5304732286     31.115     -3.744     10.364    0.279       1 
 568143.00    30.5010018060   114.5304337510     31.384     -3.806     10.670    0.286       1 
 568144.00    30.5010994150   114.5303936170     31.671     -3.877     10.984    0.303       1 
 568145.00    30.5011987889   114.5303529135     31.957     -3.867     10.900    0.256       1 
 568146.00    30.5012945172   114.5303137591     32.246     -3.619     10.327    0.262       1 
 568147.00    30.5013845770   114.5302774438     32.490     -3.334      9.630    0.207       1 
 568148.00    30.5014678892   114.5302440969     32.731     -3.049      8.828    0.218       1 
 568149.00    30.5015434077   114.5302139015     32.950     -2.728      7.953    0.200       1 
 568150.00    30.5016117739   114.5301866250     33.145     -2.497      7.211    0.170       1 
 568151.00    30.5016731913   114.5301620709     33.321     -2.219      6.435    0.159       1 
 568152.00    30.5017278529   114.5301402406     33.477     -1.955      5.678    0.136       1 
 568153.00    30.5017774624   114.5301205648     33.628     -1.898      5.542    0.165       1 
 568154.00    30.5018298943   114.5300991081     33.783     -2.229      6.154    0.173       1 
 568155.00    30.5018888833   114.5300734468     33.950     -2.685      6.912    0.186       1 
 568156.00    30.5019546493   114.5300440904     34.136     -2.962      7.657    0.172       1 
 568157.00    30.5020268086   114.5300123193     34.351     -3.145      8.314    0.247       1 
 568158.00    30.5021047915   114.5299787939     34.581     -3.209      8.963    0.267       1 
 568159.00    30.5021885138   114.5299447394     34.819     -3.332      9.569    0.261       1 
 568160.00    30.5022774614   114.5299093614     35.064     -3.447     10.143    0.243       1 
 568161.00    30.5023711455   114.5298725808     35.319     -3.625     10.631    0.268       1 
 568162.00    30.5024688478   114.5298336632     35.594     -3.843     10.932    0.267       1 
 568163.00    30.5025659715   114.5297942658     35.846     -3.750     10.567    0.112       1 
 568164.00    30.5026579096   114.5297561720     36.130     -3.545      9.879    0.258       1 
 568165.00    30.5027443800   114.5297203804     36.391     -3.323      9.385    0.203       1 
 568166.00    30.5028273323   114.5296867337     36.615     -3.141      8.965    0.318       1 
 568167.00    30.5029071403   114.5296545986     36.861     -2.999      8.693    0.237       1 
 568168.00    30.5029841523   114.5296238819     37.083     -2.892      8.399    0.240       1 
 568169.00    30.5030595154   114.5295937218     37.304     -2.917      8.366    0.200       1 
 568170.00    30.5031355857   114.5295630227     37.529     -2.972      8.503    0.204       1 
 568171.00    30.5032108520   114.5295325322     37.743     -2.887      8.193    0.195       1 
 568172.00    30.5032839150   114.5295025601     37.924     -2.839      8.003    0.224       1 
 568173.00    30.5033547171   114.5294733940     38.131     -2.706      7.619    0.258       1 
 568174.00    30.5034208793   114.5294456149     38.351     -2.557      7.056    0.226       1 
 568175.00    30.5034837591   114.5294195267     38.519     -2.457      6.858    0.191       1 
 568176.00    30.5035450255   114.5293945297     38.704     -2.333      6.722    0.196       1 
 568177.00    30.5036051483   114.5293704613     38.868     -2.248      6.606    0.174       1 
 568178.00    30.5036642231   114.5293471900     39.016     -2.178      6.476    0.169       1 
 568179.00    30.5037220612   114.5293241468     39.190     -2.235      6.320    0.195       1 
 568180.00    30.5037787013   114.5293010899     39.339     -2.214      6.268    0.115       1 
 568181.00    30.5038354147   114.5292780585     39.496     -2.208      6.289    0.181       1 
 568182.00    30.5038921966   114.5292549850     39.665     -2.215      6.304    0.177       1 
 568183.00    30.5039491004   114.5292316598     39.825     -2.216      6.276    0.197       1 
 568184.00    30.5040055310   114.5292084510     39.989     -2.235      6.282    0.136       1 
 568185.00    30.5040617812   114.5291851204     40.161     -2.237      6.227    0.180       1 
 568186.00    30.5041177030   114.5291617802     40.329     -2.250      6.203    0.143       1 
 568187.00    30.5041736014   114.5291384329     40.475     -2.220      6.197    0.167       1 
 568188.00    30.5042291010   114.5291155678     40.644     -2.113      6.108    0.191       1 
 568189.00    30.5042836319   114.5290939499     40.805     -2.059      6.028    0.081       1 
 568190.00    30.5043374901   114.5290730321     40.951     -1.923      5.864    0.170       1 
 568191.00    30.5043860180   114.5290545219     41.079     -1.555      4.728    0.131       1 
 568192.00    30.5044238022   114.5290399349     41.199     -1.248      3.666    0.107       1 
 568193.00    30.5044549926   114.5290277152     41.300     -1.253      3.606    0.100       1 
 568194.00    30.5044918749   114.5290133297     41.428     -1.516      4.518    0.139       1 
 568195.00    30.5045359517   114.5289960332     41.576     -1.770      5.267    0.161       1 
 568196.00    30.5045842021   114.5289769158     41.646     -1.775      5.146    0.097       1 
 568197.00    30.5046267407   114.5289598732     41.750     -1.521      4.238    0.190       1 
 568198.00    30.5046636120   114.5289446019     41.867     -1.444      4.012    0.103       1 
 568199.00    30.5047005157   114.5289284575     41.982     -1.736      4.209    0.107       1 
 568200.00    30.5047394539   114.5289080954     42.109     -2.171      4.463    0.119       1 
 568201.00    30.5047800310   114.5288825784     42.251     -2.778      4.580    0.129       1 
 568202.00    30.5048204513   114.5288509680     42.393     -3.225      4.341    0.142       1 
 568203.00    30.5048560542   114.5288164048     42.533     -3.406      3.735    0.153       1 
 568204.00    30.5048877296   114.5287796828     42.641     -3.730      3.414    0.097       1 
 568205.00    30.5049160901   114.5287399439     42.756     -3.866      2.932    0.088       1 
 568206.00    30.5049388259   114.5287011692     42.723     -3.633      2.307   -0.081       1 
 568207.00    30.5049561095   114.5286651987     42.695     -3.425      1.734   -0.026       1 
 568208.00    30.5049676719   114.5286306727     42.626     -3.412      1.064   -0.136       1 
 568209.00    30.5049726766   114.5285955767     42.516     -3.632      0.304   -0.093       1 
 568210.00    30.5049681233   114.5285578137     42.409     -4.169     -0.852   -0.104       1 
 568211.00    30.5049521377   114.5285167423     42.283     -4.388     -2.126   -0.140       1 
 568212.00    30.5049289890   114.5284712501     42.126     -4.786     -2.841   -0.180       1 
 568213.00    30.5049008758   114.5284181212     41.931     -5.493     -3.333   -0.204       1 
 568214.00    30.5048690440   114.5283569630     41.726     -6.232     -3.737   -0.204       1 
 568215.00    30.5048337842   114.5282884809     41.509     -6.893     -4.078   -0.217       1 
 568216.00    30.5047958114   114.5282134478     41.288     -7.472     -4.323   -0.206       1 
 568217.00    30.5047564075   114.5281326410     41.103     -7.996     -4.412   -0.167       1 
 568218.00    30.5047163748   114.5280466766     40.955     -8.435     -4.513   -0.126       1 
