   GPSTime         Latitude        Longitude      H-Ell      Vel-N      Vel-E    Vel-U   Q
     (sec)            (Deg)            (Deg)        (m)      (m/s)      (m/s)    (m/s)  
 568015.00    30.4992575103   114.5394185809     28.259     -4.453      8.765    0.052       1 
 568016.00    30.4993372773   114.5393721623     28.336     -4.441      8.915    0.113       1 
 568017.00    30.4994183095   114.5393254602     28.432     -4.526      9.034    0.094       1 
 568018.00    30.4995001339   114.5392777075     28.534     -4.620      9.111    0.099       1 
 568019.00    30.4995827255   114.5392288476     28.633     -4.723      9.204    0.117       1 
 568020.00    30.4996661915   114.5391787811     28.718     -4.859      9.281    0.112       1 
 568021.00    30.4997505548   114.5391277019     28.822     -4.942      9.354    0.238       1 
 568022.00    30.4998352612   114.5390758720     28.944     -4.969      9.462   -0.006       1 
 568023.00    30.4999201229   114.5390242663     28.998     -4.913      9.318    0.116       1 
 568024.00    30.5000034496   114.5389734041     29.059     -4.831      9.233    0.121       1 
 568025.00    30.5000872991   114.5389224092     29.139     -4.929      9.425   -0.061       1 
 568026.00    30.5001723163   114.5388709356     29.218     -4.944      9.463    0.045       1 
 568027.00    30.5002580614   114.5388194284     29.353     -4.953      9.496    0.219       1 
 568028.00    30.5003437112   114.5387682840     29.465     -4.909      9.426    0.164       1 
 568029.00    30.5004284750   114.5387177042     29.602     -4.840      9.367    0.107       1 
 568030.00    30.5005125649   114.5386675450     29.708     -4.809      9.301    0.066       1 
 568031.00    30.5005954927   114.5386178027     29.804     -4.739      9.075    0.174       1 
 568032.00    30.5006766630   114.5385688856     29.922     -4.677      8.944    0.103       1 
 568033.00    30.5007565601   114.5385202770     29.999     -4.687      8.856   -0.030       1 
 568034.00    30.5008350168   114.5384717494     30.126     -4.662      8.608    0.083       1 
 568035.00    30.5009113708   114.5384248930     30.244     -4.309      8.306    0.003       1 
 568036.00    30.5009831801   114.5383800610     30.326     -4.354      7.710   -0.115       1 
 568037.00    30.5010501020   114.5383380221     30.464     -3.883      7.216    0.065       1 
 568038.00    30.5011137927   114.5382997004     30.555     -3.441      6.913    0.111       1 
 568039.00    30.5011731049   114.5382658100     30.662     -3.070      6.296    0.106       1 
 568040.00    30.5012291876   114.5382340690     30.747     -3.003      6.172    0.081       1 
 568041.00    30.5012849976   114.5382024403     30.863     -3.084      6.235    0.090       1 
 568042.00    30.5013421937   114.5381696234     30.977     -3.290      6.447    0.132       1 
 568043.00    30.5014008923   114.5381343033     31.088     -3.591      6.533    0.056       1 
 568044.00    30.5014593452   114.5380948387     31.199     -4.007      6.492    0.136       1 
 568045.00    30.5015177869   114.5380519005     31.358     -4.247      6.503    0.170       1 
 568046.00    30.5015758972   114.5380053511     31.534     -4.747      6.408    0.090       1 
 568047.00    30.5016324667   114.5379541440     31.601     -5.117      6.205    0.079       1 
 568048.00    30.5016864938   114.5378987262     31.635     -5.584      5.845    0.003       1 
 568049.00    30.5017373439   114.5378391542     31.641     -5.925      5.510   -0.011       1 
 568050.00    30.5017845501   114.5377757297     31.655     -6.271      4.976    0.062       1 
 568051.00    30.5018253714   114.5377087272     31.707     -6.695      4.173    0.048       1 
 568052.00    30.5018568895   114.5376366627     31.694     -7.261      3.045    0.008       1 
 568053.00    30.5018789824   114.5375600986     31.717     -7.645      2.054   -0.040       1 
 568054.00    30.5018912278   114.5374796400     31.695     -8.104      0.891   -0.013       1 
 568055.00    30.5018920288   114.5373936747     31.676     -8.659     -0.395    0.045       1 
 568056.00    30.5018840791   114.5373017685     31.676     -9.172     -1.253   -0.048       1 
 568057.00    30.5018679170   114.5372083529     31.678     -8.892     -2.066   -0.013       1 
 568058.00    30.5018464489   114.5371174553     31.550     -8.680     -2.480   -0.020       1 
 568059.00    30.5018218079   114.5370274345     31.537     -8.722     -2.857   -0.052       1 
 568060.00    30.5017938083   114.5369360371     31.501     -8.935     -3.279   -0.098       1 
 568061.00    30.5017625462   114.5368420643     31.427     -9.191     -3.548   -0.057       1 
 568062.00    30.5017299215   114.5367445371     31.367     -9.561     -3.677   -0.117       1 
 568063.00    30.5016956142   114.5366434638     31.292     -9.880     -3.863   -0.105       1 
 568064.00    30.5016605959   114.5365384795     31.222    -10.248     -3.916   -0.057       1 
 568065.00    30.5016251883   114.5364294609     31.145    -10.631     -3.950   -0.049       1 
 568066.00    30.5015893892   114.5363167166     31.087    -10.999     -4.002   -0.078       1 
 568067.00    30.5015525814   114.5362006300     31.015    -11.284     -4.106   -0.043       1 
 568068.00    30.5015163920   114.5360805793     30.940    -11.711     -3.922   -0.106       1 
 568069.00    30.5014818020   114.5359557957     30.872    -12.186     -3.839   -0.106       1 
 568070.00    30.5014468439   114.5358268031     30.800    -12.573     -3.977   -0.074       1 
 568071.00    30.5014084423   114.5356950718     30.716    -12.784     -4.464   -0.070       1 
 568072.00    30.5013663061   114.5355610863     30.658    -13.001     -4.789   -0.104       1 
 568073.00    30.5013222084   114.5354244346     30.579    -13.263     -4.955   -0.072       1 
 568074.00    30.5012767244   114.5352850212     30.513    -13.496     -5.120   -0.085       1 
 568075.00    30.5012299479   114.5351436744     30.413    -13.617     -5.211   -0.101       1 
 568076.00    30.5011830758   114.5350030344     30.329    -13.359     -5.141   -0.104       1 
 568077.00    30.5011371562   114.5348649200     30.244    -13.233     -5.053   -0.094       1 
 568078.00    30.5010915661   114.5347263571     30.158    -13.385     -5.059   -0.105       1 
 568079.00    30.5010457526   114.5345866140     30.064    -13.392     -5.090   -0.079       1 
 568080.00    30.5010000298   114.5344485883     29.980    -13.096     -5.050   -0.046       1 
 568081.00    30.5009550429   114.5343139005     29.882    -12.776     -4.917   -0.091       1 
 568082.00    30.5009103911   114.5341828856     29.808    -12.396     -4.948   -0.037       1 
 568083.00    30.5008660151   114.5340557024     29.754    -12.053     -4.854   -0.084       1 
 568084.00    30.5008230320   114.5339317874     29.674    -11.753     -4.676   -0.107       1 
 568085.00    30.5007817785   114.5338109034     29.596    -11.473     -4.476   -0.093       1 
 568086.00    30.5007420033   114.5336931446     29.538    -11.154     -4.335   -0.060       1 
 568087.00    30.5007033837   114.5335786545     29.467    -10.823     -4.209   -0.068       1 
 568088.00    30.5006660114   114.5334675075     29.403    -10.515     -4.075   -0.043       1 
 568089.00    30.5006299002   114.5333598031     29.336    -10.170     -3.934   -0.089       1 
 568090.00    30.5005951030   114.5332557439     29.304     -9.800     -3.795   -0.017       1 
 568091.00    30.5005616538   114.5331554273     29.246     -9.466     -3.636   -0.088       1 
 568092.00    30.5005291639   114.5330574384     29.186     -9.343     -3.579   -0.020       1 
 568093.00    30.5004971863   114.5329603203     29.130     -9.296     -3.548   -0.026       1 
 568094.00    30.5004648861   114.5328637893     29.072     -9.268     -3.613   -0.072       1 
 568095.00    30.5004318935   114.5327673002     29.003     -9.267     -3.686   -0.058       1 
 568096.00    30.5003986949   114.5326704121     28.944     -9.309     -3.681   -0.055       1 
 568097.00    30.5003661806   114.5325744300     28.892     -9.060     -3.517   -0.036       1 
 568098.00    30.5003350023   114.5324803689     28.838     -8.976     -3.436   -0.045       1 
 568099.00    30.5003042806   114.5323877424     28.770     -8.720     -3.378   -0.041       1 
 568100.00    30.5002740659   114.5322978936     28.720     -8.568     -3.339   -0.052       1 
 568101.00    30.5002443790   114.5322099918     28.669     -8.257     -3.231   -0.027       1 
 568102.00    30.5002158432   114.5321254322     28.618     -7.934     -3.100   -0.022       1 
 568103.00    30.5001887869   114.5320447323     28.574     -7.541     -2.904   -0.065       1 
 568104.00    30.5001634822   114.5319683396     28.530     -7.109     -2.708   -0.058       1 
 568105.00    30.5001398096   114.5318967167     28.488     -6.618     -2.552   -0.044       1 
 568106.00    30.5001173072   114.5318306640     28.459     -6.059     -2.407   -0.016       1 
 568107.00    30.5000963328   114.5317714777     28.420     -5.348     -2.206   -0.055       1 
 568108.00    30.5000773649   114.5317200648     28.397     -4.599     -1.976    0.003       1 
 568109.00    30.5000608868   114.5316757896     28.379     -3.852     -1.596   -0.036       1 
 568110.00    30.5000491653   114.5316364059     28.351     -3.576     -1.141   -0.007       1 
 568111.00    30.5000415168   114.5315983384     28.336     -3.552     -0.762   -0.012       1 
 568112.00    30.5000358282   114.5315593075     28.300     -3.797     -0.628   -0.048       1 
 568113.00    30.5000299829   114.5315218442     28.263     -3.449     -0.684   -0.046       1 
 568114.00    30.5000222367   114.5314887582     28.241     -3.014     -0.867   -0.041       1 
 568115.00    30.5000137234   114.5314608325     28.223     -2.589     -0.920   -0.028       1 
 568116.00    30.5000047853   114.5314356013     28.211     -2.316     -0.944    0.002       1 
 568117.00    30.4999974327   114.5314159392     28.202     -1.553     -0.659   -0.010       1 
 568118.00    30.4999924183   114.5314024241     28.201     -1.254     -0.510   -0.005       1 
 568119.00    30.4999887801   114.5313876853     28.196     -1.432     -0.385   -0.011       1 
 568120.00    30.4999866306   114.5313677016     28.186     -2.029     -0.270   -0.003       1 
 568121.00    30.4999860777   114.5313428784     28.163     -2.514     -0.107   -0.005       1 
 568122.00    30.4999862133   114.5313118809     28.136     -3.368     -0.023   -0.020       1 
 568123.00    30.4999858036   114.5312716853     28.100     -4.331     -0.082   -0.031       1 
 568124.00    30.4999842249   114.5312253239     28.064     -4.534     -0.202   -0.079       1 
 568125.00    30.4999816769   114.5311775316     28.014     -4.699     -0.262   -0.048       1 
 568126.00    30.4999819368   114.5311263544     27.950     -4.953      0.297   -0.068       1 
 568127.00    30.4999901357   114.5310727746     27.962     -4.979      1.244    0.103       1 
 568128.00    30.5000078300   114.5310205308     28.080     -4.750      2.286    0.178       1 
 568129.00    30.5000341441   114.5309722154     28.280     -4.357      3.286    0.144       1 
 568130.00    30.5000690732   114.5309278139     28.464     -4.138      4.208    0.135       1 
 568131.00    30.5001113063   114.5308861513     28.682     -3.845      4.979    0.205       1 
 568132.00    30.5001603347   114.5308475756     28.889     -3.500      5.771    0.217       1 
 568133.00    30.5002158958   114.5308121764     29.058     -3.378      6.422    0.146       1 
 568134.00    30.5002757223   114.5307757280     29.206     -3.618      6.866    0.129       1 
 568135.00    30.5003393448   114.5307364930     29.400     -3.808      7.287    0.173       1 
 568136.00    30.5004074049   114.5306968872     29.597     -3.723      7.822    0.192       1 
 568137.00    30.5004805310   114.5306591411     29.833     -3.579      8.336    0.260       1 
 568138.00    30.5005580496   114.5306221458     30.072     -3.501      8.840    0.243       1 
 568139.00    30.5006400926   114.5305858069     30.313     -3.495      9.325    0.256       1 
 568140.00    30.5007259796   114.5305493947     30.561     -3.528      9.680    0.286       1 
 568141.00    30.5008150915   114.5305120144     30.830     -3.618     10.054    0.265       1 
 568142.00    30.5009071591   114.5304738151     31.113     -3.744     10.364    0.281       1 
 568143.00    30.5010019916   114.5304343380     31.383     -3.806     10.670    0.285       1 
 568144.00    30.5010995990   114.5303942046     31.669     -3.877     10.984    0.302       1 
 568145.00    30.5011989729   114.5303535011     31.955     -3.867     10.900    0.256       1 
 568146.00    30.5012947001   114.5303143471     32.245     -3.619     10.327    0.260       1 
 568147.00    30.5013847578   114.5302780326     32.488     -3.334      9.631    0.207       1 
 568148.00    30.5014680691   114.5302446861     32.729     -3.049      8.828    0.216       1 
 568149.00    30.5015435873   114.5302144908     32.949     -2.728      7.952    0.199       1 
 568150.00    30.5016119536   114.5301872143     33.144     -2.497      7.211    0.171       1 
 568151.00    30.5016733711   114.5301626602     33.320     -2.219      6.434    0.159       1 
 568152.00    30.5017280324   114.5301408300     33.476     -1.955      5.678    0.137       1 
 568153.00    30.5017776413   114.5301211545     33.626     -1.898      5.543    0.162       1 
 568154.00    30.5018300789   114.5300996954     33.781     -2.229      6.154    0.173       1 
 568155.00    30.5018890793   114.5300740291     33.949     -2.685      6.913    0.186       1 
 568156.00    30.5019548466   114.5300446723     34.135     -2.962      7.657    0.174       1 
 568157.00    30.5020270038   114.5300129020     34.349     -3.145      8.313    0.247       1 
 568158.00    30.5021049797   114.5299793798     34.580     -3.209      8.962    0.264       1 
 568159.00    30.5021886957   114.5299453280     34.818     -3.332      9.569    0.260       1 
 568160.00    30.5022776391   114.5299099517     35.063     -3.447     10.143    0.242       1 
 568161.00    30.5023713233   114.5298731710     35.318     -3.625     10.631    0.268       1 
 568162.00    30.5024690276   114.5298342526     35.593     -3.843     10.932    0.270       1 
 568163.00    30.5025661543   114.5297948541     35.845     -3.750     10.567    0.113       1 
 568164.00    30.5026580959   114.5297567587     36.129     -3.545      9.880    0.257       1 
 568165.00    30.5027445642   114.5297209680     36.390     -3.323      9.384    0.203       1 
 568166.00    30.5028275135   114.5296873226     36.614     -3.141      8.965    0.317       1 
 568167.00    30.5029073210   114.5296551876     36.859     -2.999      8.692    0.236       1 
 568168.00    30.5029843316   114.5296244714     37.082     -2.892      8.399    0.240       1 
 568169.00    30.5030596961   114.5295943108     37.302     -2.917      8.366    0.200       1 
 568170.00    30.5031357673   114.5295636113     37.528     -2.972      8.502    0.205       1 
 568171.00    30.5032110339   114.5295331207     37.742     -2.887      8.193    0.195       1 
 568172.00    30.5032840986   114.5295031480     37.924     -2.839      8.003    0.222       1 
 568173.00    30.5033549028   114.5294739809     38.130     -2.706      7.621    0.254       1 
 568174.00    30.5034210673   114.5294462010     38.350     -2.557      7.056    0.225       1 
 568175.00    30.5034839442   114.5294201138     38.518     -2.457      6.858    0.192       1 
 568176.00    30.5035452078   114.5293951181     38.702     -2.333      6.721    0.195       1 
 568177.00    30.5036053280   114.5293710507     38.866     -2.248      6.605    0.173       1 
 568178.00    30.5036644020   114.5293477793     39.014     -2.178      6.477    0.167       1 
 568179.00    30.5037222409   114.5293247359     39.188     -2.235      6.320    0.197       1 
 568180.00    30.5037788822   114.5293016789     39.338     -2.214      6.268    0.117       1 
 568181.00    30.5038355970   114.5292786470     39.495     -2.208      6.289    0.181       1 
 568182.00    30.5038923792   114.5292555733     39.664     -2.215      6.304    0.177       1 
 568183.00    30.5039492835   114.5292322479     39.825     -2.216      6.277    0.196       1 
 568184.00    30.5040057154   114.5292090387     39.989     -2.235      6.282    0.137       1 
 568185.00    30.5040619678   114.5291857071     40.160     -2.237      6.228    0.179       1 
 568186.00    30.5041178897   114.5291623668     40.328     -2.250      6.204    0.144       1 
 568187.00    30.5041737874   114.5291390198     40.474     -2.220      6.196    0.166       1 
 568188.00    30.5042292841   114.5291161560     40.644     -2.113      6.108    0.189       1 
 568189.00    30.5042838107   114.5290945396     40.803     -2.059      6.027    0.082       1 
 568190.00    30.5043376646   114.5290736235     40.949     -1.923      5.864    0.169       1 
 568191.00    30.5043861904   114.5290551141     41.077     -1.555      4.728    0.130       1 
 568192.00    30.5044239762   114.5290405266     41.198     -1.248      3.666    0.108       1 
 568193.00    30.5044551688   114.5290283061     41.299     -1.253      3.605    0.101       1 
 568194.00    30.5044920517   114.5290139202     41.426     -1.516      4.518    0.138       1 
 568195.00    30.5045361294   114.5289966233     41.574     -1.770      5.267    0.160       1 
 568196.00    30.5045843804   114.5289775057     41.645     -1.775      5.146    0.096       1 
 568197.00    30.5046269225   114.5289604614     41.748     -1.521      4.238    0.192       1 
 568198.00    30.5046637977   114.5289451886     41.865     -1.444      4.013    0.102       1 
 568199.00    30.5047007123   114.5289290395     41.980     -1.736      4.212    0.109       1 
 568200.00    30.5047396810   114.5289086627     42.108     -2.171      4.468    0.118       1 
 568201.00    30.5047802981   114.5288831220     42.250     -2.778      4.585    0.131       1 
 568202.00    30.5048207631   114.5288514788     42.393     -3.225      4.347    0.141       1 
 568203.00    30.5048564065   114.5288168792     42.533     -3.406      3.741    0.154       1 
 568204.00    30.5048881177   114.5287801184     42.642     -3.730      3.419    0.099       1 
 568205.00    30.5049165120   114.5287403353     42.758     -3.866      2.938    0.087       1 
 568206.00    30.5049392771   114.5287015142     42.724     -3.633      2.312   -0.082       1 
 568207.00    30.5049565844   114.5286654986     42.695     -3.425      1.740   -0.027       1 
 568208.00    30.5049681769   114.5286308976     42.625     -3.412      1.074   -0.134       1 
 568209.00    30.5049732097   114.5285956833     42.515     -3.632      0.319   -0.092       1 
 568210.00    30.5049686600   114.5285577355     42.407     -4.169     -0.832   -0.103       1 
 568211.00    30.5049526310   114.5285164862     42.280     -4.388     -2.113   -0.137       1 
 568212.00    30.5049294546   114.5284709323     42.123     -4.786     -2.837   -0.179       1 
 568213.00    30.5049013367   114.5284177941     41.929     -5.493     -3.333   -0.203       1 
 568214.00    30.5048695063   114.5283566384     41.724     -6.232     -3.737   -0.204       1 
 568215.00    30.5048342479   114.5282881589     41.508     -6.893     -4.078   -0.218       1 
 568216.00    30.5047962779   114.5282131313     41.287     -7.472     -4.325   -0.205       1 
 568217.00    30.5047568791   114.5281323346     41.102     -7.996     -4.413   -0.167       1 
 568218.00    30.5047168504   114.5280463789     40.953     -8.435     -4.514   -0.127       1 
