   GPSTime         Latitude        Longitude      H-Ell      Vel-N      Vel-E    Vel-U   Q
     (sec)            (Deg)            (Deg)        (m)      (m/s)      (m/s)    (m/s)  
 299169.00    30.4682487888   114.4159353639     23.983      6.480     -6.987   -0.550       1 
 299170.00    30.4681812993   114.4159936677     23.490      5.263     -7.721   -0.480       1 
 299171.00    30.4681081930   114.4160380513     23.073      3.872     -8.313   -0.389       1 
 299172.00    30.4680297216   114.4160677694     22.716      2.436     -8.936   -0.307       1 
 299173.00    30.4679462776   114.4160797595     22.355      0.567     -9.412   -0.383       1 
 299174.00    30.4678604326   114.4160718099     21.967     -1.337     -9.551   -0.376       1 
 299175.00    30.4677749223   114.4160478250     21.573     -2.707     -9.370   -0.403       1 
 299176.00    30.4676924101   114.4160109034     21.185     -3.918     -9.005   -0.388       1 
 299177.00    30.4676143779   114.4159597902     20.802     -5.358     -8.303   -0.330       1 
 299178.00    30.4675462744   114.4158926596     20.470     -6.792     -6.966   -0.348       1 
 299179.00    30.4674910648   114.4158123078     20.090     -7.972     -5.543   -0.395       1 
 299180.00    30.4674484532   114.4157209094     19.704     -9.076     -4.204   -0.355       1 
 299181.00    30.4674156231   114.4156191228     19.356    -10.117     -3.355   -0.349       1 
 299182.00    30.4673886244   114.4155077271     19.032    -11.080     -2.711   -0.336       1 
 299183.00    30.4673695918   114.4153868973     18.755    -11.877     -1.666   -0.234       1 
 299184.00    30.4673578023   114.4152592982     18.579    -12.544     -1.167   -0.147       1 
 299185.00    30.4673491237   114.4151257748     18.475    -13.094     -0.840   -0.048       1 
 299186.00    30.4673422983   114.4149868805     18.447    -13.589     -0.705   -0.043       1 
 299187.00    30.4673368387   114.4148439833     18.459    -13.675     -0.506    0.096       0 
 299188.00    30.4673333862   114.4147033375     18.596    -13.295     -0.324    0.218       0 
 299189.00    30.4673303378   114.4145663547     18.882    -13.101     -0.390    0.276       0 
 299190.00    30.4673266061   114.4144299137     19.143    -13.100     -0.415    0.310       0 
 299191.00    30.4673228779   114.4142933104     19.532    -13.119     -0.412    0.435       0 
 299192.00    30.4673189310   114.4141578070     20.018    -12.908     -0.449    0.548       0 
 299193.00    30.4673148843   114.4140251131     20.586    -12.483     -0.453    0.539       0 
 299194.00    30.4673105506   114.4138962634     21.035    -12.342     -0.488    0.401       0 
 299195.00    30.4673059278   114.4137692961     21.366    -12.109     -0.525    0.246       0 
 299196.00    30.4673009613   114.4136431162     21.520    -12.177     -0.561    0.108       0 
 299197.00    30.4672955243   114.4135164678     21.590    -12.144     -0.639    0.101       0 
 299198.00    30.4672893550   114.4133892029     21.493    -12.313     -0.754   -0.104       1 
 299199.00    30.4672829192   114.4132612284     21.420    -12.164     -0.669   -0.118       1 
 299200.00    30.4672765820   114.4131358698     21.190    -11.868     -0.688   -0.307       1 
 299201.00    30.4672699061   114.4130131426     20.906    -11.714     -0.791   -0.321       1 
 299202.00    30.4672618687   114.4128918195     20.494    -11.610     -0.950   -0.379       1 
 299203.00    30.4672522425   114.4127710358     19.995    -11.586     -1.176   -0.514       1 
 299204.00    30.4672414470   114.4126509215     19.439    -11.398     -1.209   -0.532       1 
 299205.00    30.4672303670   114.4125352418     18.914    -10.985     -1.271   -0.510       1 
 299206.00    30.4672184400   114.4124213283     18.418    -10.894     -1.351   -0.537       1 
 299207.00    30.4672054793   114.4123079797     17.850    -10.905     -1.497   -0.465       1 
 299208.00    30.4671913096   114.4121948095     17.336    -10.864     -1.616   -0.460       1 
 299209.00    30.4671762874   114.4120826188     17.033    -10.733     -1.714   -0.177       1 
 299210.00    30.4671603731   114.4119726153     16.853    -10.498     -1.821   -0.191       1 
 299211.00    30.4671432541   114.4118636425     16.663    -10.504     -1.961   -0.145       1 
 299212.00    30.4671253086   114.4117542298     16.542    -10.551     -2.048   -0.092       1 
 299213.00    30.4671065677   114.4116444166     16.451    -10.489     -2.109   -0.068       1 
 299214.00    30.4670873609   114.4115368114     16.354    -10.186     -2.123   -0.062       1 
 299215.00    30.4670684402   114.4114319858     16.232    -10.021     -2.093   -0.125       1 
 299216.00    30.4670490499   114.4113272003     16.126    -10.152     -2.171   -0.117       1 
 299217.00    30.4670291789   114.4112222096     16.020     -9.958     -2.226   -0.059       1 
 299218.00    30.4670092794   114.4111204420     15.963     -9.600     -2.186   -0.052       1 
 299219.00    30.4669898762   114.4110224311     15.914     -9.223     -2.111   -0.045       1 
 299220.00    30.4669715256   114.4109282028     15.859     -8.879     -1.962   -0.069       1 
 299221.00    30.4669543406   114.4108377174     15.802     -8.499     -1.867   -0.048       1 
 299222.00    30.4669375914   114.4107501687     15.749     -8.347     -1.850   -0.062       1 
 299223.00    30.4669206260   114.4106634349     15.683     -8.299     -1.885   -0.073       1 
 299224.00    30.4669035543   114.4105789847     15.635     -7.931     -1.873   -0.047       1 
 299225.00    30.4668868135   114.4104985128     15.587     -7.515     -1.835   -0.064       1 
 299226.00    30.4668695024   114.4104228269     15.565     -7.039     -1.954    0.012       1 
 299227.00    30.4668511860   114.4103527340     15.545     -6.506     -2.025   -0.039       1 
 299228.00    30.4668326059   114.4102884464     15.504     -5.924     -2.017   -0.034       1 
 299229.00    30.4668147585   114.4102273552     15.481     -5.751     -1.947    0.002       1 
 299230.00    30.4667972831   114.4101692141     15.487     -5.652     -1.979    0.006       1 
 299231.00    30.4667783070   114.4101064829     15.490     -6.418     -2.216   -0.004       1 
 299232.00    30.4667581458   114.4100351004     15.487     -7.203     -2.284   -0.004       1 
 299233.00    30.4667376321   114.4099561896     15.499     -7.912     -2.312    0.032       1 
 299234.00    30.4667166439   114.4098695973     15.519     -8.678     -2.383    0.038       1 
 299235.00    30.4666951716   114.4097753710     15.560     -9.291     -2.384    0.063       1 
 299236.00    30.4666746425   114.4096772175     15.614     -9.556     -2.281    0.076       1 
 299237.00    30.4666537116   114.4095759244     15.671     -9.880     -2.355    0.046       1 
 299238.00    30.4666324089   114.4094711698     15.728    -10.221     -2.376    0.060       1 
 299239.00    30.4666111277   114.4093631077     15.805    -10.505     -2.367    0.123       1 
 299240.00    30.4665906061   114.4092536750     15.872    -10.393     -2.208    0.084       1 
 299241.00    30.4665711938   114.4091459900     15.967    -10.316     -2.149    0.150       1 
 299242.00    30.4665517128   114.4090388821     16.052    -10.326     -2.215    0.108       1 
 299243.00    30.4665321290   114.4089308473     16.145    -10.444     -2.144    0.086       1 
 299244.00    30.4665129630   114.4088212921     16.225    -10.517     -2.126    0.096       1 
 299245.00    30.4664941229   114.4087136906     16.295    -10.093     -2.056    0.043       1 
 299246.00    30.4664762819   114.4086116711     16.362     -9.318     -1.867    0.054       1 
 299247.00    30.4664610618   114.4085231826     16.410     -7.546     -1.471    0.033       1 
 299248.00    30.4664492034   114.4084527583     16.468     -6.317     -1.215    0.065       1 
 299249.00    30.4664385254   114.4083885748     16.541     -6.256     -1.200    0.060       1 
 299250.00    30.4664274545   114.4083230949     16.598     -6.220     -1.247    0.041       1 
 299251.00    30.4664161363   114.4082611376     16.641     -5.611     -1.205    0.059       1 
 299252.00    30.4664053565   114.4082049936     16.682     -5.243     -1.171    0.024       1 
 299253.00    30.4663941581   114.4081485276     16.742     -5.735     -1.299    0.038       1 
 299254.00    30.4663822815   114.4080852684     16.790     -6.338     -1.338    0.048       1 
 299255.00    30.4663706011   114.4080198250     16.845     -6.348     -1.293    0.062       1 
 299256.00    30.4663589235   114.4079525894     16.895     -6.548     -1.329    0.042       1 
 299257.00    30.4663465966   114.4078815815     16.960     -7.136     -1.444    0.059       1 
 299258.00    30.4663329574   114.4078047569     17.018     -7.398     -1.526    0.078       1 
 299259.00    30.4663192567   114.4077293769     17.083     -7.172     -1.518    0.042       0 
 299260.00    30.4663053514   114.4076541326     17.142     -7.279     -1.555    0.060       0 
 299261.00    30.4662911256   114.4075771183     17.196     -7.473     -1.603    0.102       0 
 299262.00    30.4662769177   114.4074984072     17.265     -7.625     -1.586    0.073       0 
 299263.00    30.4662630202   114.4074170980     17.289     -7.999     -1.561    0.043       2 
 299264.00    30.4662489566   114.4073323448     17.308     -8.247     -1.586    0.036       2 
 299265.00    30.4662340765   114.4072451973     17.352     -8.489     -1.702    0.042       1 
 299266.00    30.4662180448   114.4071551815     17.446     -8.813     -1.835    0.087       1 
 299267.00    30.4662014696   114.4070630622     17.544     -8.748     -1.796    0.113       1 
 299268.00    30.4661855750   114.4069730523     17.642     -8.694     -1.770    0.105       1 
 299269.00    30.4661699517   114.4068828230     17.738     -8.674     -1.744    0.130       1 
 299270.00    30.4661540290   114.4067922252     17.860     -8.766     -1.788    0.079       1 
 299271.00    30.4661376390   114.4067012571     17.982     -8.803     -1.832    0.109       1 
 299272.00    30.4661210323   114.4066106550     18.112     -8.662     -1.851    0.131       1 
 299273.00    30.4661039221   114.4065188779     18.259     -8.987     -1.937    0.135       1 
 299274.00    30.4660867427   114.4064259718     18.405     -8.880     -1.870    0.162       1 
 299275.00    30.4660703073   114.4063323895     18.574     -9.050     -1.813    0.180       1 
 299276.00    30.4660539453   114.4062376000     18.752     -9.133     -1.825    0.211       1 
 299277.00    30.4660371962   114.4061420876     18.949     -9.274     -1.898    0.204       1 
 299278.00    30.4660195403   114.4060434619     19.179     -9.701     -2.035    0.257       1 
 299279.00    30.4660007245   114.4059398176     19.418    -10.191     -2.115    0.232       1 
 299280.00    30.4659812282   114.4058317940     19.664    -10.534     -2.190    0.267       1 
 299281.00    30.4659613422   114.4057213411     19.936    -10.683     -2.241    0.362       1 
 299282.00    30.4659412550   114.4056097176     20.230    -10.745     -2.218    0.314       1 
 299283.00    30.4659209875   114.4054972326     20.532    -10.831     -2.248    0.342       1 
 299284.00    30.4659008998   114.4053849297     20.837    -10.690     -2.203    0.328       1 
 299285.00    30.4658812111   114.4052733696     21.135    -10.777     -2.203    0.317       1 
 299286.00    30.4658613336   114.4051605988     21.463    -10.808     -2.232    0.433       1 
 299287.00    30.4658413899   114.4050478759     21.780    -10.831     -2.228    0.298       1 
 299288.00    30.4658208214   114.4049343590     22.071    -10.980     -2.315    0.309       1 
 299289.00    30.4657992289   114.4048193793     22.377    -11.111     -2.444    0.302       1 
 299290.00    30.4657771887   114.4047026840     22.668    -11.276     -2.467    0.314       1 
 299291.00    30.4657552726   114.4045855944     22.997    -11.121     -2.386    0.328       1 
 299292.00    30.4657345705   114.4044726314     23.301    -10.592     -2.210    0.300       1 
 299293.00    30.4657152156   114.4043632048     23.601    -10.451     -2.153    0.268       1 
 299294.00    30.4656957608   114.4042560577     23.889    -10.135     -2.127    0.247       1 
 299295.00    30.4656766726   114.4041497854     24.176    -10.281     -2.098    0.286       1 
 299296.00    30.4656571466   114.4040412936     24.465    -10.542     -2.205    0.239       1 
 299297.00    30.4656370821   114.4039304765     24.750    -10.753     -2.254    0.336       1 
 299298.00    30.4656171100   114.4038168129     25.051    -11.040     -2.205    0.357       1 
 299299.00    30.4655973799   114.4037001870     25.402    -11.335     -2.237    0.396       1 
 299300.00    30.4655767572   114.4035804397     25.721    -11.664     -2.317    0.303       1 
 299301.00    30.4655551730   114.4034568669     26.015    -12.103     -2.475    0.304       1 
 299302.00    30.4655320489   114.4033287804     26.310    -12.555     -2.649    0.311       0 
 299303.00    30.4655078465   114.4031958420     26.567    -12.952     -2.714    0.219       0 
 299304.00    30.4654827711   114.4030581256     26.801    -13.466     -2.784    0.242       0 
 299305.00    30.4654570680   114.4029159039     27.034    -13.744     -2.862    0.197       0 
 299306.00    30.4654318264   114.4027735146     27.214    -13.665     -2.790    0.188       2 
 299307.00    30.4654064735   114.4026299886     27.361    -13.886     -2.816    0.069       2 
 299308.00    30.4653808167   114.4024850889     27.471    -13.893     -2.823    0.082       2 
 299309.00    30.4653556970   114.4023398440     27.532    -13.954     -2.754    0.079       0 
 299310.00    30.4653307414   114.4021951207     27.572    -13.796     -2.723   -0.029       0 
 299311.00    30.4653060268   114.4020532488     27.554    -13.462     -2.739   -0.015       0 
 299312.00    30.4652812197   114.4019152967     27.513    -13.037     -2.711   -0.102       0 
 299313.00    30.4652572573   114.4017824035     27.451    -12.564     -2.597   -0.084       0 
 299314.00    30.4652341763   114.4016533533     27.372    -12.241     -2.517   -0.117       0 
 299315.00    30.4652116910   114.4015274477     27.251    -11.964     -2.481   -0.096       0 
 299316.00    30.4651896353   114.4014036627     27.095    -11.811     -2.414   -0.197       0 
 299317.00    30.4651681578   114.4012805653     26.921    -11.808     -2.368   -0.190       1 
 299318.00    30.4651468326   114.4011585086     26.725    -11.722     -2.368   -0.223       1 
 299319.00    30.4651251021   114.4010355153     26.512    -11.843     -2.440   -0.113       1 
 299320.00    30.4651028857   114.4009120085     26.269    -11.858     -2.472   -0.255       1 
 299321.00    30.4650809005   114.4007867728     25.974    -12.100     -2.397   -0.320       1 
 299322.00    30.4650592468   114.4006591740     25.655    -12.392     -2.478   -0.334       1 
 299323.00    30.4650359883   114.4005286516     25.300    -12.614     -2.644   -0.348       1 
 299324.00    30.4650116264   114.4003958851     24.927    -12.900     -2.757   -0.368       1 
 299325.00    30.4649870069   114.4002599500     24.520    -13.079     -2.685   -0.425       1 
 299326.00    30.4649627646   114.4001218477     24.132    -13.498     -2.709   -0.433       1 
 299327.00    30.4649381263   114.3999780180     23.702    -14.018     -2.762   -0.424       1 
 299328.00    30.4649128600   114.3998325803     23.273    -13.747     -2.802   -0.371       1 
 299329.00    30.4648882303   114.3996917673     22.865    -13.180     -2.646   -0.322       1 
 299330.00    30.4648655110   114.3995596293     22.486    -12.100     -2.410   -0.343       1 
 299331.00    30.4648441509   114.3994395943     22.146    -11.176     -2.465   -0.298       1 
 299332.00    30.4648199691   114.3993251858     21.852    -10.925     -2.825   -0.258       1 
 299333.00    30.4647932802   114.3992107086     21.561    -11.156     -3.042   -0.290       1 
 299334.00    30.4647655854   114.3990925432     21.295    -11.535     -3.081   -0.275       1 
 299335.00    30.4647384189   114.3989710230     21.043    -11.751     -2.912   -0.232       1 
 299336.00    30.4647137118   114.3988472438     20.807    -12.041     -2.671   -0.241       1 
 299337.00    30.4646894056   114.3987198438     20.545    -12.441     -2.746   -0.213       1 
 299338.00    30.4646637269   114.3985893466     20.350    -12.538     -2.934   -0.153       1 
 299339.00    30.4646370684   114.3984598044     20.179    -12.379     -2.934   -0.147       1 
 299340.00    30.4646116802   114.3983306429     20.020    -12.279     -2.686   -0.121       1 
 299341.00    30.4645893303   114.3982077442     19.899    -11.035     -2.312   -0.099       1 
 299342.00    30.4645700738   114.3981018696     19.809     -9.591     -2.040   -0.090       1 
 299343.00    30.4645526687   114.3980037299     19.723     -9.246     -1.858   -0.080       1 
 299344.00    30.4645365783   114.3979091520     19.661     -8.912     -1.712   -0.051       1 
 299345.00    30.4645210984   114.3978184191     19.606     -8.528     -1.717   -0.020       1 
 299346.00    30.4645059279   114.3977325390     19.580     -7.861     -1.622    0.011       1 
 299347.00    30.4644918814   114.3976535766     19.572     -7.309     -1.474   -0.005       1 
 299348.00    30.4644791040   114.3975801954     19.561     -6.766     -1.378   -0.001       1 
 299349.00    30.4644665630   114.3975111553     19.558     -6.603     -1.403   -0.019       1 
 299350.00    30.4644538647   114.3974422712     19.557     -6.764     -1.429    0.007       1 
 299351.00    30.4644411293   114.3973705790     19.557     -6.951     -1.409    0.020       1 
 299352.00    30.4644284905   114.3972965439     19.549     -7.295     -1.439    0.016       1 
 299353.00    30.4644147754   114.3972174992     19.523     -7.969     -1.684   -0.021       1 
 299354.00    30.4643988603   114.3971304543     19.484     -8.751     -1.834    0.042       1 
 299355.00    30.4643815112   114.3970358786     19.493     -9.391     -2.000    0.039       1 
 299356.00    30.4643628754   114.3969351622     19.524     -9.942     -2.141    0.058       1 
 299357.00    30.4643430936   114.3968285950     19.571    -10.567     -2.253    0.024       1 
 299358.00    30.4643221843   114.3967147075     19.616    -11.314     -2.402    0.039       1 
 299359.00    30.4642999655   114.3965925425     19.650    -12.157     -2.544    0.037       1 
 299360.00    30.4642767313   114.3964623230     19.687    -12.785     -2.598    0.078       1 
 299361.00    30.4642541539   114.3963290704     19.719    -12.813     -2.446    0.054       1 
 299362.00    30.4642325525   114.3961942015     19.735    -13.050     -2.386    0.032       1 
 299363.00    30.4642108684   114.3960574749     19.779    -13.215     -2.456    0.021       1 
 299364.00    30.4641884332   114.3959188678     19.799    -13.356     -2.474    0.021       0 
 299365.00    30.4641669213   114.3957798753     19.838    -13.373     -2.325    0.039       0 
 299366.00    30.4641463088   114.3956392014     19.881    -13.633     -2.288    0.046       0 
 299367.00    30.4641265352   114.3954965163     19.911    -13.712     -2.109    0.064       0 
 299368.00    30.4641083774   114.3953533395     19.959    -13.727     -1.939    0.119       0 
 299369.00    30.4640916283   114.3952097105     20.021    -13.823     -1.810    0.046       0 
 299370.00    30.4640758758   114.3950669434     20.057    -13.537     -1.705    0.060       0 
 299371.00    30.4640608498   114.3949282254     20.077    -13.076     -1.627    0.022       0 
 299372.00    30.4640467038   114.3947943288     20.117    -12.658     -1.526    0.065       1 
