   GPSTime         Latitude        Longitude      H-Ell      Vel-N      Vel-E    Vel-U   Q
     (sec)            (Deg)            (Deg)        (m)      (m/s)      (m/s)    (m/s)  
 299169.00    30.4682491759   114.4159357998     23.981      6.480     -6.977   -0.547       1 
 299170.00    30.4681816159   114.4159941740     23.487      5.263     -7.710   -0.477       1 
 299171.00    30.4681084278   114.4160386141     23.071      3.872     -8.303   -0.388       1 
 299172.00    30.4680298677   114.4160683710     22.715      2.436     -8.925   -0.305       1 
 299173.00    30.4679463166   114.4160803826     22.354      0.567     -9.400   -0.381       1 
 299174.00    30.4678603660   114.4160724298     21.966     -1.337     -9.542   -0.374       1 
 299175.00    30.4677747798   114.4160484276     21.572     -2.707     -9.363   -0.401       1 
 299176.00    30.4676921991   114.4160114787     21.185     -3.918     -8.997   -0.387       1 
 299177.00    30.4676140877   114.4159603174     20.801     -5.358     -8.291   -0.327       1 
 299178.00    30.4675458997   114.4158931104     20.469     -6.792     -6.953   -0.344       1 
 299179.00    30.4674906238   114.4158126700     20.089     -7.972     -5.531   -0.394       1 
 299180.00    30.4674479649   114.4157211787     19.703     -9.076     -4.194   -0.352       1 
 299181.00    30.4674151113   114.4156193260     19.355    -10.117     -3.349   -0.348       1 
 299182.00    30.4673881001   114.4155078817     19.031    -11.080     -2.705   -0.336       1 
 299183.00    30.4673690566   114.4153869895     18.754    -11.877     -1.661   -0.233       1 
 299184.00    30.4673572638   114.4152593603     18.578    -12.544     -1.166   -0.150       1 
 299185.00    30.4673485837   114.4151258183     18.475    -13.094     -0.839   -0.049       1 
 299186.00    30.4673417580   114.4149869158     18.448    -13.589     -0.705   -0.043       1 
 299187.00    30.4673362980   114.4148440088     18.459    -13.675     -0.505    0.096       0 
 299188.00    30.4673328452   114.4147033553     18.596    -13.295     -0.323    0.218       0 
 299189.00    30.4673297969   114.4145663766     18.882    -13.101     -0.390    0.275       0 
 299190.00    30.4673260653   114.4144299366     19.144    -13.100     -0.414    0.311       0 
 299191.00    30.4673223370   114.4142933334     19.532    -13.119     -0.412    0.435       0 
 299192.00    30.4673183902   114.4141578321     20.018    -12.908     -0.449    0.550       0 
 299193.00    30.4673143438   114.4140251405     20.588    -12.483     -0.455    0.542       0 
 299194.00    30.4673100099   114.4138962920     21.035    -12.342     -0.489    0.399       0 
 299195.00    30.4673053872   114.4137693265     21.366    -12.109     -0.524    0.246       0 
 299196.00    30.4673004209   114.4136431490     21.520    -12.177     -0.561    0.110       0 
 299197.00    30.4672949840   114.4135165032     21.591    -12.144     -0.639    0.101       0 
 299198.00    30.4672888149   114.4133892426     21.493    -12.313     -0.754   -0.105       1 
 299199.00    30.4672823790   114.4132612667     21.421    -12.164     -0.669   -0.116       1 
 299200.00    30.4672760419   114.4131359094     21.191    -11.868     -0.687   -0.306       1 
 299201.00    30.4672693662   114.4130131868     20.906    -11.714     -0.791   -0.322       1 
 299202.00    30.4672613295   114.4128918718     20.493    -11.610     -0.951   -0.376       1 
 299203.00    30.4672517041   114.4127710997     19.995    -11.586     -1.176   -0.515       1 
 299204.00    30.4672409089   114.4126509885     19.439    -11.398     -1.209   -0.532       1 
 299205.00    30.4672298296   114.4125353153     18.915    -10.985     -1.272   -0.510       1 
 299206.00    30.4672179031   114.4124214071     18.418    -10.894     -1.350   -0.536       1 
 299207.00    30.4672049433   114.4123080658     17.849    -10.905     -1.499   -0.465       1 
 299208.00    30.4671907744   114.4121949028     17.335    -10.864     -1.617   -0.460       1 
 299209.00    30.4671757531   114.4120827186     17.033    -10.733     -1.716   -0.179       1 
 299210.00    30.4671598400   114.4119727230     16.853    -10.498     -1.822   -0.193       1 
 299211.00    30.4671427223   114.4118637584     16.662    -10.504     -1.962   -0.145       1 
 299212.00    30.4671247773   114.4117543489     16.542    -10.551     -2.049   -0.094       1 
 299213.00    30.4671060373   114.4116445409     16.451    -10.489     -2.109   -0.068       1 
 299214.00    30.4670868313   114.4115369397     16.354    -10.186     -2.124   -0.060       1 
 299215.00    30.4670679108   114.4114321153     16.231    -10.021     -2.094   -0.126       1 
 299216.00    30.4670485210   114.4113273331     16.125    -10.152     -2.171   -0.117       1 
 299217.00    30.4670286506   114.4112223457     16.020     -9.958     -2.227   -0.060       1 
 299218.00    30.4670087519   114.4111205817     15.962     -9.600     -2.187   -0.051       1 
 299219.00    30.4669893488   114.4110225714     15.915     -9.223     -2.110   -0.045       1 
 299220.00    30.4669709974   114.4109283392     15.859     -8.879     -1.962   -0.070       1 
 299221.00    30.4669538122   114.4108378528     15.802     -8.499     -1.867   -0.047       1 
 299222.00    30.4669370633   114.4107503054     15.750     -8.347     -1.850   -0.061       1 
 299223.00    30.4669200984   114.4106635745     15.684     -8.299     -1.886   -0.073       1 
 299224.00    30.4669030275   114.4105791277     15.635     -7.931     -1.873   -0.047       1 
 299225.00    30.4668862878   114.4104986611     15.587     -7.515     -1.836   -0.061       1 
 299226.00    30.4668689806   114.4104229928     15.565     -7.039     -1.956    0.012       1 
 299227.00    30.4668506691   114.4103529189     15.545     -6.506     -2.027   -0.039       1 
 299228.00    30.4668320934   114.4102886471     15.504     -5.924     -2.017   -0.035       1 
 299229.00    30.4668142459   114.4102275557     15.481     -5.751     -1.947    0.003       1 
 299230.00    30.4667967725   114.4101694214     15.488     -5.652     -1.978    0.006       1 
 299231.00    30.4667777958   114.4101066881     15.490     -6.418     -2.215   -0.003       1 
 299232.00    30.4667576306   114.4100352916     15.487     -7.203     -2.282   -0.004       1 
 299233.00    30.4667371129   114.4099563657     15.500     -7.912     -2.311    0.032       1 
 299234.00    30.4667161220   114.4098697628     15.519     -8.678     -2.382    0.039       1 
 299235.00    30.4666946473   114.4097755261     15.559     -9.291     -2.381    0.062       1 
 299236.00    30.4666741159   114.4096773621     15.614     -9.556     -2.281    0.077       1 
 299237.00    30.4666531851   114.4095760693     15.671     -9.880     -2.354    0.046       1 
 299238.00    30.4666318817   114.4094713109     15.728    -10.221     -2.376    0.060       1 
 299239.00    30.4666105996   114.4093632441     15.805    -10.505     -2.366    0.122       1 
 299240.00    30.4665900765   114.4092538041     15.872    -10.393     -2.207    0.084       1 
 299241.00    30.4665706638   114.4091461165     15.967    -10.316     -2.149    0.149       1 
 299242.00    30.4665511833   114.4090390113     16.052    -10.326     -2.216    0.104       1 
 299243.00    30.4665315989   114.4089309735     16.145    -10.444     -2.143    0.087       1 
 299244.00    30.4665124322   114.4088214142     16.225    -10.517     -2.126    0.095       1 
 299245.00    30.4664935923   114.4087138136     16.295    -10.093     -2.056    0.043       1 
 299246.00    30.4664757511   114.4086117927     16.362     -9.318     -1.866    0.053       1 
 299247.00    30.4664605306   114.4085233022     16.410     -7.546     -1.472    0.036       1 
 299248.00    30.4664486721   114.4084528775     16.468     -6.317     -1.215    0.063       1 
 299249.00    30.4664379939   114.4083886923     16.542     -6.256     -1.200    0.059       1 
 299250.00    30.4664269234   114.4083232149     16.598     -6.220     -1.248    0.040       1 
 299251.00    30.4664156066   114.4082612656     16.641     -5.611     -1.205    0.060       1 
 299252.00    30.4664048282   114.4082051292     16.683     -5.243     -1.171    0.024       1 
 299253.00    30.4663936302   114.4081486654     16.742     -5.735     -1.299    0.037       1 
 299254.00    30.4663817520   114.4080853973     16.790     -6.338     -1.338    0.047       1 
 299255.00    30.4663700705   114.4080199484     16.845     -6.348     -1.292    0.062       1 
 299256.00    30.4663583926   114.4079527106     16.895     -6.548     -1.329    0.041       1 
 299257.00    30.4663460659   114.4078817035     16.960     -7.136     -1.443    0.060       1 
 299258.00    30.4663324271   114.4078048813     17.018     -7.398     -1.526    0.082       1 
 299259.00    30.4663187269   114.4077295043     17.083     -7.172     -1.518    0.043       0 
 299260.00    30.4663048219   114.4076542617     17.142     -7.279     -1.555    0.061       0 
 299261.00    30.4662905961   114.4075772474     17.196     -7.473     -1.603    0.102       0 
 299262.00    30.4662763875   114.4074985325     17.265     -7.625     -1.586    0.071       0 
 299263.00    30.4662624889   114.4074172166     17.289     -7.999     -1.560    0.042       2 
 299264.00    30.4662484247   114.4073324602     17.309     -8.247     -1.586    0.039       2 
 299265.00    30.4662335455   114.4072453182     17.352     -8.489     -1.703    0.043       1 
 299266.00    30.4662175146   114.4071553068     17.447     -8.813     -1.835    0.085       1 
 299267.00    30.4662009393   114.4070631871     17.545     -8.748     -1.796    0.112       1 
 299268.00    30.4661850443   114.4069731747     17.642     -8.694     -1.769    0.105       1 
 299269.00    30.4661694207   114.4068829435     17.739     -8.674     -1.744    0.130       1 
 299270.00    30.4661534986   114.4067923490     17.861     -8.766     -1.788    0.080       1 
 299271.00    30.4661371089   114.4067013830     17.983     -8.803     -1.833    0.109       1 
 299272.00    30.4661205026   114.4066107833     18.112     -8.662     -1.851    0.132       1 
 299273.00    30.4661033927   114.4065190076     18.259     -8.987     -1.937    0.134       1 
 299274.00    30.4660862128   114.4064260987     18.405     -8.880     -1.869    0.161       1 
 299275.00    30.4660697764   114.4063325106     18.575     -9.050     -1.813    0.179       1 
 299276.00    30.4660534141   114.4062377198     18.752     -9.133     -1.825    0.210       1 
 299277.00    30.4660366656   114.4061422104     18.949     -9.274     -1.899    0.204       1 
 299278.00    30.4660190101   114.4060435873     19.180     -9.701     -2.035    0.258       1 
 299279.00    30.4660001943   114.4059399432     19.419    -10.191     -2.114    0.233       1 
 299280.00    30.4659806978   114.4058319186     19.664    -10.534     -2.190    0.266       1 
 299281.00    30.4659608121   114.4057214673     19.937    -10.683     -2.242    0.361       1 
 299282.00    30.4659407246   114.4056098420     20.231    -10.745     -2.218    0.317       1 
 299283.00    30.4659204571   114.4054973568     20.532    -10.831     -2.248    0.340       1 
 299284.00    30.4659003693   114.4053850533     20.837    -10.690     -2.203    0.327       1 
 299285.00    30.4658806804   114.4052734917     21.136    -10.777     -2.203    0.316       1 
 299286.00    30.4658608027   114.4051607204     21.463    -10.808     -2.231    0.436       1 
 299287.00    30.4658408593   114.4050479986     21.780    -10.831     -2.227    0.298       1 
 299288.00    30.4658202914   114.4049344854     22.071    -10.980     -2.315    0.309       1 
 299289.00    30.4657986994   114.4048195084     22.376    -11.111     -2.443    0.301       1 
 299290.00    30.4657766592   114.4047028135     22.668    -11.276     -2.467    0.313       1 
 299291.00    30.4657547429   114.4045857222     22.996    -11.121     -2.385    0.327       1 
 299292.00    30.4657340402   114.4044727560     23.301    -10.592     -2.209    0.298       1 
 299293.00    30.4657146849   114.4043633269     23.601    -10.451     -2.153    0.269       1 
 299294.00    30.4656952306   114.4042561829     23.889    -10.135     -2.126    0.249       1 
 299295.00    30.4656761416   114.4041499066     24.175    -10.281     -2.096    0.285       1 
 299296.00    30.4656566163   114.4040414187     24.465    -10.542     -2.206    0.240       1 
 299297.00    30.4656365516   114.4039306001     24.749    -10.753     -2.252    0.334       1 
 299298.00    30.4656165786   114.4038169314     25.050    -11.040     -2.204    0.357       1 
 299299.00    30.4655968481   114.4037003031     25.401    -11.335     -2.237    0.398       1 
 299300.00    30.4655762257   114.4035805578     25.720    -11.664     -2.317    0.305       1 
 299301.00    30.4655546420   114.4034569878     26.015    -12.103     -2.476    0.302       1 
 299302.00    30.4655315184   114.4033289043     26.310    -12.555     -2.649    0.308       0 
 299303.00    30.4655073160   114.4031959656     26.566    -12.952     -2.712    0.220       0 
 299304.00    30.4654822406   114.4030582489     26.800    -13.466     -2.785    0.245       0 
 299305.00    30.4654565373   114.4029160261     27.033    -13.744     -2.862    0.199       0 
 299306.00    30.4654312952   114.4027736344     27.213    -13.665     -2.789    0.187       2 
 299307.00    30.4654059425   114.4026301090     27.361    -13.886     -2.815    0.070       2 
 299308.00    30.4653802854   114.4024852078     27.470    -13.893     -2.821    0.084       2 
 299309.00    30.4653551654   114.4023399618     27.532    -13.954     -2.754    0.078       0 
 299310.00    30.4653302098   114.4021952382     27.572    -13.796     -2.723   -0.029       0 
 299311.00    30.4653054957   114.4020533694     27.553    -13.462     -2.739   -0.016       0 
 299312.00    30.4652806892   114.4019154204     27.513    -13.037     -2.711   -0.103       0 
 299313.00    30.4652567267   114.4017825270     27.451    -12.564     -2.597   -0.084       0 
 299314.00    30.4652336456   114.4016534760     27.372    -12.241     -2.517   -0.117       0 
 299315.00    30.4652111604   114.4015275706     27.250    -11.964     -2.480   -0.097       0 
 299316.00    30.4651891046   114.4014037848     27.095    -11.811     -2.413   -0.196       0 
 299317.00    30.4651676266   114.4012806850     26.921    -11.808     -2.368   -0.191       1 
 299318.00    30.4651463015   114.4011586288     26.725    -11.722     -2.369   -0.222       1 
 299319.00    30.4651245713   114.4010356371     26.511    -11.843     -2.440   -0.113       1 
 299320.00    30.4651023551   114.4009121313     26.268    -11.858     -2.470   -0.255       1 
 299321.00    30.4650803689   114.4007868900     25.973    -12.100     -2.395   -0.317       1 
 299322.00    30.4650587152   114.4006592917     25.654    -12.392     -2.478   -0.335       1 
 299323.00    30.4650354578   114.4005287753     25.300    -12.614     -2.645   -0.346       1 
 299324.00    30.4650110960   114.4003960097     24.926    -12.900     -2.756   -0.365       1 
 299325.00    30.4649864759   114.4002600710     24.519    -13.079     -2.685   -0.422       1 
 299326.00    30.4649622331   114.4001219659     24.131    -13.498     -2.709   -0.433       1 
 299327.00    30.4649375945   114.3999781339     23.702    -14.018     -2.762   -0.420       1 
 299328.00    30.4649123288   114.3998326997     23.272    -13.747     -2.804   -0.372       1 
 299329.00    30.4648876988   114.3996918853     22.865    -13.180     -2.646   -0.317       1 
 299330.00    30.4648649794   114.3995597464     22.487    -12.100     -2.410   -0.341       1 
 299331.00    30.4648436212   114.3994397224     22.147    -11.176     -2.468   -0.299       1 
 299332.00    30.4648194439   114.3993253366     21.853    -10.925     -2.827   -0.258       1 
 299333.00    30.4647927569   114.3992108680     21.562    -11.156     -3.042   -0.292       1 
 299334.00    30.4647650614   114.3990926999     21.295    -11.535     -3.082   -0.274       1 
 299335.00    30.4647378926   114.3989711687     21.043    -11.751     -2.911   -0.233       1 
 299336.00    30.4647131827   114.3988473750     20.808    -12.041     -2.671   -0.240       1 
 299337.00    30.4646888760   114.3987199725     20.545    -12.441     -2.746   -0.213       1 
 299338.00    30.4646631987   114.3985894826     20.350    -12.538     -2.934   -0.153       1 
 299339.00    30.4646365406   114.3984599425     20.179    -12.379     -2.933   -0.148       1 
 299340.00    30.4646111504   114.3983307703     20.020    -12.279     -2.684   -0.120       1 
 299341.00    30.4645887996   114.3982078667     19.899    -11.035     -2.313   -0.099       1 
 299342.00    30.4645695432   114.3981019924     19.809     -9.591     -2.038   -0.093       1 
 299343.00    30.4645521371   114.3980038473     19.723     -9.246     -1.857   -0.079       1 
 299344.00    30.4645360463   114.3979092666     19.661     -8.912     -1.713   -0.051       1 
 299345.00    30.4645205669   114.3978185368     19.606     -8.528     -1.717   -0.022       1 
 299346.00    30.4645053968   114.3977326596     19.580     -7.861     -1.622    0.012       1 
 299347.00    30.4644913504   114.3976536973     19.572     -7.309     -1.473   -0.005       1 
 299348.00    30.4644785727   114.3975803142     19.561     -6.766     -1.377    0.002       1 
 299349.00    30.4644660327   114.3975112805     19.558     -6.603     -1.404   -0.019       1 
 299350.00    30.4644533343   114.3974423955     19.557     -6.764     -1.429    0.007       1 
 299351.00    30.4644405981   114.3973706989     19.557     -6.951     -1.409    0.018       1 
 299352.00    30.4644279585   114.3972966588     19.549     -7.295     -1.440    0.015       1 
 299353.00    30.4644142445   114.3972176205     19.524     -7.969     -1.685   -0.023       1 
 299354.00    30.4643983296   114.3971305768     19.484     -8.751     -1.834    0.042       1 
 299355.00    30.4643809808   114.3970360030     19.492     -9.391     -2.001    0.040       1 
 299356.00    30.4643623452   114.3969352879     19.524     -9.942     -2.140    0.059       1 
 299357.00    30.4643425634   114.3968287202     19.570    -10.567     -2.254    0.024       1 
 299358.00    30.4643216539   114.3967148317     19.616    -11.314     -2.401    0.040       1 
 299359.00    30.4642994348   114.3965926649     19.651    -12.157     -2.545    0.036       1 
 299360.00    30.4642761998   114.3964624413     19.687    -12.785     -2.597    0.079       1 
 299361.00    30.4642536214   114.3963291821     19.719    -12.813     -2.445    0.056       1 
 299362.00    30.4642320192   114.3961943079     19.736    -13.050     -2.386    0.032       1 
 299363.00    30.4642103355   114.3960575837     19.780    -13.215     -2.456    0.022       1 
 299364.00    30.4641879001   114.3959189757     19.799    -13.356     -2.473    0.020       0 
 299365.00    30.4641663873   114.3957799774     19.838    -13.373     -2.325    0.042       0 
 299366.00    30.4641457741   114.3956392981     19.882    -13.633     -2.287    0.046       0 
 299367.00    30.4641259996   114.3954966058     19.911    -13.712     -2.108    0.066       0 
 299368.00    30.4641078408   114.3953534208     19.959    -13.727     -1.939    0.118       0 
 299369.00    30.4640910910   114.3952097860     20.022    -13.823     -1.809    0.047       0 
 299370.00    30.4640753382   114.3950670156     20.057    -13.537     -1.705    0.060       0 
 299371.00    30.4640603121   114.3949282967     20.077    -13.076     -1.627    0.022       0 
 299372.00    30.4640461658   114.3947943968     20.118    -12.658     -1.525    0.064       1 
