
   GPSTime         Latitude        Longitude      H-Ell      Vel-N      Vel-E    Vel-U       Q  
     (sec)            (Deg)            (Deg)        (m)      (m/s)      (m/s)    (m/s)          
444931.000    40.2163720347   116.2134968698     61.310    -14.663      7.710   -0.117       1 
444932.000    40.2162391931   116.2135870323     61.194    -14.780      7.636   -0.130       1 
444933.000    40.2161065918   116.2136759139     61.062    -14.617      7.493   -0.121       1 
444934.000    40.2159760760   116.2137632239     60.935    -14.361      7.362   -0.132       1 
444935.000    40.2158478777   116.2138493206     60.813    -14.140      7.294   -0.124       1 
444936.000    40.2157208838   116.2139352184     60.698    -14.068      7.320   -0.126       1 
444937.000    40.2155943546   116.2140213021     60.585    -14.085      7.352   -0.099       1 
444938.000    40.2154668324   116.2141087096     60.462    -14.175      7.528   -0.131       1 
444939.000    40.2153380825   116.2141967909     60.339    -14.462      7.487   -0.125       1 
444940.000    40.2152071367   116.2142853270     60.223    -14.629      7.573   -0.121       1 
444941.000    40.2150750011   116.2143747081     60.114    -14.753      7.648   -0.131       1 
444942.000    40.2149414078   116.2144649569     59.978    -14.926      7.721   -0.123       1 
444943.000    40.2148067023   116.2145559217     59.849    -14.993      7.749   -0.122       1 
444944.000    40.2146713784   116.2146469960     59.727    -15.063      7.755   -0.122       1 
444945.000    40.2145355922   116.2147382476     59.625    -15.097      7.780   -0.080       1 
444946.000    40.2143992769   116.2148297704     59.580    -15.183      7.810   -0.037       1 
444947.000    40.2142624695   116.2149215638     59.573    -15.163      7.807    0.012       1 
444948.000    40.2141261887   116.2150128659     59.612    -15.118      7.749    0.081       1 
444949.000    40.2139902422   116.2151035788     59.693    -15.083      7.701    0.125       1 
444950.000    40.2138546283   116.2151937454     59.821    -15.040      7.676    0.137       1 
444951.000    40.2137191513   116.2152841425     59.996    -15.099      7.726    0.223       1 
444952.000    40.2135826800   116.2153757895     60.203    -15.222      7.853    0.223       1 
444953.000    40.2134455926   116.2154684211     60.484    -15.243      7.887    0.314       1 
444954.000    40.2133085953   116.2155610047     60.793    -15.206      7.868    0.306       1 
444955.000    40.2131716118   116.2156532832     61.094    -15.235      7.846    0.275       1 
444956.000    40.2130340973   116.2157453689     61.392    -15.307      7.827    0.306       1 
444957.000    40.2128961958   116.2158369415     61.674    -15.296      7.775    0.293       1 
444958.000    40.2127584869   116.2159282384     61.958    -15.297      7.776    0.307       1 
444959.000    40.2126209646   116.2160199447     62.257    -15.316      7.864    0.305       1 
444960.000    40.2124823514   116.2161132312     62.564    -15.476      7.999    0.311       1 
444961.000    40.2123424949   116.2162074490     62.874    -15.579      8.016    0.313       1 
444962.000    40.2122016275   116.2163020484     63.167    -15.701      8.089    0.283       1 
444963.000    40.2120598110   116.2163974794     63.473    -15.794      8.167    0.316       1 
444964.000    40.2119171507   116.2164936099     63.761    -15.895      8.185    0.301       1 
444965.000    40.2117735680   116.2165890016     64.097    -15.971      8.066    0.326       1 
444966.000    40.2116298596   116.2166832435     64.378    -15.959      8.006    0.240       1 
444967.000    40.2114861344   116.2167773196     64.585    -15.964      8.007    0.131       1 
444968.000    40.2113422144   116.2168712356     64.750    -16.025      7.953    0.122       1 
444969.000    40.2111968718   116.2169634161     64.867    -16.272      7.726    0.170       1 
444970.000    40.2110492652   116.2170529641     64.930    -16.457      7.594   -0.013       1 
444971.000    40.2109011257   116.2171415762     64.940    -16.442      7.526   -0.039       1 
444972.000    40.2107527769   116.2172293527     64.896    -16.508      7.365   -0.051       1 
444973.000    40.2106037050   116.2173142869     64.799    -16.603      7.142   -0.121       1 
444974.000    40.2104536506   116.2173973614     64.663    -16.696      7.008   -0.185       1 
444975.000    40.2103025145   116.2174787246     64.468    -16.845      6.868   -0.212       1 
444976.000    40.2101501795   116.2175582966     64.209    -16.973      6.663   -0.228       1 
444977.000    40.2099962370   116.2176354354     63.886    -17.154      6.511   -0.452       1 
444978.000    40.2098405358   116.2177115197     63.448    -17.405      6.470   -0.398       1 
444979.000    40.2096834548   116.2177875353     63.048    -17.479      6.487   -0.429       1 
444980.000    40.2095256781   116.2178637382     62.573    -17.550      6.503   -0.498       1 
444981.000    40.2093672969   116.2179399769     62.085    -17.657      6.454   -0.490       1 
444982.000    40.2092073972   116.2180149443     61.582    -17.834      6.360   -0.481       1 
444983.000    40.2090463782   116.2180899634     61.075    -17.928      6.419   -0.530       1 
444984.000    40.2088845022   116.2181656029     60.570    -18.028      6.466   -0.479       1 
444985.000    40.2087218683   116.2182419412     60.068    -18.094      6.516   -0.501       1 
444986.000    40.2085583777   116.2183184194     59.558    -18.209      6.512   -0.482       1 
444987.000    40.2083948887   116.2183946755     59.052    -18.071      6.502   -0.514       1 
444988.000    40.2082327988   116.2184708118     58.547    -17.933      6.460   -0.518       1 
444989.000    40.2080720140   116.2185464234     58.067    -17.798      6.400   -0.458       1 
444990.000    40.2079128260   116.2186219475     57.649    -17.554      6.488   -0.365       1 
444991.000    40.2077556100   116.2186979171     57.261    -17.366      6.419   -0.340       1 
444992.000    40.2076000155   116.2187723360     56.914    -17.188      6.268   -0.317       1 
444993.000    40.2074465526   116.2188459079     56.633    -16.926      6.259   -0.261       1 
444994.000    40.2072953661   116.2189190112     56.397    -16.666      6.176   -0.232       1 
444995.000    40.2071463620   116.2189908701     56.179    -16.435      6.053   -0.197       1 
444996.000    40.2069996216   116.2190609584     56.021    -16.181      5.875   -0.128       1 
444997.000    40.2068552867   116.2191293699     55.888    -15.862      5.781   -0.100       1 
444998.000    40.2067138591   116.2191971337     55.787    -15.532      5.738   -0.063       1 
444999.000    40.2065754244   116.2192639880     55.723    -15.210      5.631   -0.093       1 
445000.000    40.2064398220   116.2193295010     55.650    -14.892      5.526   -0.063       1 
445001.000    40.2063068791   116.2193937497     55.596    -14.661      5.428   -0.048       1 
445002.000    40.2061756718   116.2194567915     55.543    -14.470      5.314   -0.055       1 
445003.000    40.2060459825   116.2195183454     55.460    -14.318      5.177   -0.060       1 
445004.000    40.2059178525   116.2195786443     55.395    -14.145      5.082   -0.061       0 
445005.000    40.2057914118   116.2196380030     55.344    -13.947      5.018   -0.055       1 
445006.000    40.2056666925   116.2196966806     55.290    -13.760      4.972   -0.042       1 
445007.000    40.2055436909   116.2197550155     55.229    -13.550      4.952   -0.056       1 
445008.000    40.2054225681   116.2198132491     55.178    -13.337      4.946   -0.047       1 
445009.000    40.2053032547   116.2198709107     55.124    -13.169      4.849   -0.052       1 
445010.000    40.2051853152   116.2199270342     55.056    -13.013      4.742   -0.074       1 
445011.000    40.2050691153   116.2199827426     55.000    -12.817      4.720   -0.044       1 
445012.000    40.2049545636   116.2200376968     54.953    -12.637      4.638   -0.047       1 
445013.000    40.2048415123   116.2200915386     54.904    -12.465      4.527   -0.069       1 
445014.000    40.2047299844   116.2201441816     54.841    -12.319      4.436   -0.064       1 
445015.000    40.2046192285   116.2201964398     54.789    -12.353      4.494   -0.046       1 
445016.000    40.2045069949   116.2202500848     54.742    -12.589      4.648   -0.052       1 
445017.000    40.2043922532   116.2203058065     54.687    -12.917      4.794   -0.041       1 
445018.000    40.2042740069   116.2203622003     54.628    -13.347      4.817   -0.078       1 
445019.000    40.2041521758   116.2204191608     54.559    -13.700      4.891   -0.056       1 
445020.000    40.2040273735   116.2204768668     54.500    -13.978      4.932   -0.077       1 
445021.000    40.2039005568   116.2205349149     54.427    -14.195      4.990   -0.063       1 
445022.000    40.2037716078   116.2205953023     54.354    -14.446      5.272   -0.064       1 
445023.000    40.2036401692   116.2206584412     54.279    -14.762      5.458   -0.075       1 
445024.000    40.2035055176   116.2207231387     54.179    -15.146      5.571   -0.093       1 
445025.000    40.2033672803   116.2207893839     54.099    -15.546      5.720   -0.117       1 
445026.000    40.2032252426   116.2208573277     54.011    -16.000      5.874   -0.117       1 
445027.000    40.2030789828   116.2209274353     53.901    -16.474      6.056   -0.092       1 
445028.000    40.2029284356   116.2209994820     53.786    -16.956      6.198   -0.123       1 
445029.000    40.2027737903   116.2210733925     53.678    -17.411      6.393   -0.142       1 
445030.000    40.2026153114   116.2211497781     53.561    -17.815      6.594   -0.139       1 
445031.000    40.2024530435   116.2212277857     53.464    -18.199      6.708   -0.127       1 
445032.000    40.2022879107   116.2213068979     53.364    -18.457      6.769   -0.109       1 
445033.000    40.2021204258   116.2213870821     53.268    -18.763      6.886   -0.011       1 
445034.000    40.2019498354   116.2214685945     53.205    -19.051      6.971   -0.132       1 
445035.000    40.2017783203   116.2215504682     53.072    -19.074      6.982   -0.108       1 
445036.000    40.2016058593   116.2216328399     53.025    -19.192      7.044   -0.002       1 
445037.000    40.2014332403   116.2217158401     53.060    -19.163      7.109    0.148       1 
445038.000    40.2012610082   116.2217995970     53.266    -19.132      7.168    0.261       1 
445039.000    40.2010885423   116.2218843619     53.583    -19.167      7.245    0.379       1 
445040.000    40.2009155493   116.2219696729     53.995    -19.268      7.282    0.405       1 
445041.000    40.2007409410   116.2220547709     54.408    -19.511      7.198    0.401       1 
445042.000    40.2005640929   116.2221395330     54.812    -19.751      7.247    0.372       1 
445043.000    40.2003852634   116.2222248249     55.218    -19.974      7.293    0.428       1 
445044.000    40.2002043656   116.2223106782     55.628    -20.170      7.332    0.360       1 
445045.000    40.2000219718   116.2223972335     55.964    -20.298      7.431    0.324       1 
445046.000    40.1998386701   116.2224854315     56.233    -20.380      7.582    0.233       1 
445047.000    40.1996546579   116.2225750050     56.440    -20.454      7.652    0.147       1 
445048.000    40.1994706222   116.2226648616     56.606    -20.399      7.673    0.140       1 
445049.000    40.1992871140   116.2227550442     56.704    -20.368      7.693   -0.063       1 
445050.000    40.1991039826   116.2228451684     56.727    -20.317      7.671    0.069       1 
445051.000    40.1989218949   116.2229351199     56.674    -20.127      7.627   -0.069       1 
445052.000    40.1987412966   116.2230243691     56.552    -19.969      7.571   -0.158       1 
445053.000    40.1985618216   116.2231132152     56.325    -19.873      7.538   -0.215       1 
445054.000    40.1983832749   116.2232011297     56.079    -19.760      7.413   -0.269       1 
445055.000    40.1982060365   116.2232876848     55.765    -19.619      7.354   -0.354       1 
445056.000    40.1980298699   116.2233740881     55.405    -19.505      7.348   -0.392       1 
445057.000    40.1978544971   116.2234604526     54.958    -19.432      7.368   -0.465       1 
445058.000    40.1976799768   116.2235469658     54.480    -19.329      7.377   -0.486       1 
445059.000    40.1975060693   116.2236337464     53.961    -19.311      7.351   -0.512       1 
445060.000    40.1973323772   116.2237196870     53.450    -19.248      7.318   -0.488       1 
445061.000    40.1971592892   116.2238057570     52.951    -19.186      7.357   -0.465       1 
445062.000    40.1969867720   116.2238919965     52.440    -19.150      7.339   -0.490       1 
445063.000    40.1968146136   116.2239779040     51.933    -19.124      7.271   -0.498       1 
445064.000    40.1966424909   116.2240626517     51.422    -19.114      7.182   -0.522       1 
445065.000    40.1964704349   116.2241466509     50.888    -19.105      7.138   -0.522       1 
445066.000    40.1962986689   116.2242302813     50.403    -19.044      7.126   -0.464       1 
445067.000    40.1961274838   116.2243139374     49.896    -18.983      7.139   -0.505       1 
445068.000    40.1959568601   116.2243978260     49.443    -18.933      7.148   -0.485       1 
445069.000    40.1957868147   116.2244817117     49.023    -18.851      7.141   -0.344       1 
445070.000    40.1956175689   116.2245654361     48.712    -18.727      7.121   -0.313       1 
445071.000    40.1954494497   116.2246486039     48.492    -18.589      7.050   -0.189       1 
445072.000    40.1952826299   116.2247308352     48.339    -18.449      6.957   -0.129       1 
445073.000    40.1951174258   116.2248120072     48.253    -18.241      6.881   -0.100       1 
445074.000    40.1949541384   116.2248923854     48.158    -18.032      6.825   -0.094       1 
445075.000    40.1947927068   116.2249721815     48.087    -17.823      6.777   -0.059       1 
445076.000    40.1946329839   116.2250516843     47.996    -17.637      6.754   -0.083       1 
445077.000    40.1944749290   116.2251308647     47.894    -17.485      6.710   -0.115       1 
445078.000    40.1943183378   116.2252093134     47.768    -17.301      6.654   -0.150       1 
445079.000    40.1941633135   116.2252872141     47.671    -17.116      6.634   -0.115       1 
445080.000    40.1940102952   116.2253655572     47.604    -16.904      6.663   -0.052       1 
445081.000    40.1938581449   116.2254425477     47.543    -16.881      6.455   -0.069       1 
445082.000    40.1937056773   116.2255178454     47.461    -17.049      6.413   -0.072       1 
445083.000    40.1935506266   116.2255940265     47.378    -17.404      6.570   -0.071       1 
445084.000    40.1933917867   116.2256724164     47.293    -17.879      6.766   -0.089       1 
445085.000    40.1932288576   116.2257527621     47.209    -18.322      6.932   -0.077       1 
445086.000    40.1930620064   116.2258358600     47.111    -18.715      7.260   -0.139       1 
445087.000    40.1928918078   116.2259234438     46.995    -19.069      7.666   -0.104       1 
445088.000    40.1927180572   116.2260148454     46.909    -19.580      7.761   -0.064       1 
445089.000    40.1925393304   116.2261049351     46.844    -20.089      7.626   -0.114       1 
445090.000    40.1923561475   116.2261947826     46.741    -20.562      7.694   -0.078       1 
445091.000    40.1921691613   116.2262859970     46.644    -20.970      7.845   -0.116       1 
445092.000    40.1919784834   116.2263788177     46.531    -21.350      7.978   -0.103       1 
445093.000    40.1917860040   116.2264727649     46.460    -21.335      8.002   -0.039       1 
445094.000    40.1915950289   116.2265664301     46.506    -21.109      7.952    0.116       1 
445095.000    40.1914060103   116.2266594524     46.670    -20.868      7.887    0.204       1 
445096.000    40.1912196399   116.2267517430     46.941    -20.534      7.830    0.343       1 
445097.000    40.1910358434   116.2268434422     47.315    -20.282      7.782    0.389       1 
445098.000    40.1908548292   116.2269345853     47.714    -19.945      7.732    0.359       1 
445099.000    40.1906764796   116.2270251643     48.115    -19.740      7.719    0.362       1 
445100.000    40.1904991059   116.2271153748     48.499    -19.666      7.661    0.384       1 
445101.000    40.1903220940   116.2272050565     48.901    -19.614      7.595    0.394       1 
445102.000    40.1901460285   116.2272937332     49.270    -19.542      7.521    0.349       1 
445103.000    40.1899703650   116.2273822006     49.604    -19.433      7.538    0.288       1 
445104.000    40.1897955191   116.2274704755     49.878    -19.433      7.518    0.230       1 
445105.000    40.1896204328   116.2275587143     50.112    -19.380      7.487    0.217       1 
445106.000    40.1894469725   116.2276459008     50.280    -19.108      7.363    0.117       1 
445107.000    40.1892762646   116.2277317873     50.413    -18.800      7.274    0.145       1 
445108.000    40.1891081648   116.2278165774     50.584    -18.532      7.143    0.102       1 
445109.000    40.1889418127   116.2279003587     50.631    -18.427      7.117   -0.023       1 
445110.000    40.1887760862   116.2279842626     50.620    -18.422      7.179   -0.030       1 
445111.000    40.1886097851   116.2280691764     50.560    -18.512      7.289   -0.083       1 
445112.000    40.1884420064   116.2281553065     50.438    -18.728      7.407   -0.292       1 
445113.000    40.1882714676   116.2282430951     50.178    -19.123      7.528   -0.240       1 
445114.000    40.1880974456   116.2283315598     49.956    -19.518      7.529   -0.234       1 
445115.000    40.1879208834   116.2284195803     49.687    -19.627      7.488   -0.253       1 
445116.000    40.1877437442   116.2285075337     49.381    -19.712      7.498   -0.355       1 
445117.000    40.1875661783   116.2285954223     49.016    -19.693      7.480   -0.393       1 
445118.000    40.1873891235   116.2286830761     48.603    -19.673      7.457   -0.433       1 
445119.000    40.1872119962   116.2287706681     48.128    -19.675      7.462   -0.440       1 
445120.000    40.1870353735   116.2288589799     47.644    -19.528      7.605   -0.468       1 
445121.000    40.1868599767   116.2289488778     47.195    -19.463      7.702   -0.469       1 
445122.000    40.1866846043   116.2290396908     46.723    -19.493      7.757   -0.480       1 
445123.000    40.1865088853   116.2291309889     46.252    -19.552      7.762   -0.441       1 
445124.000    40.1863326033   116.2292221009     45.806    -19.609      7.735   -0.458       1 
445125.000    40.1861559691   116.2293126113     45.381    -19.612      7.691   -0.368       1 
445126.000    40.1859800411   116.2294024208     45.016    -19.480      7.594   -0.375       1 
445127.000    40.1858049786   116.2294911415     44.690    -19.403      7.522   -0.322       1 
445128.000    40.1856308303   116.2295793465     44.412    -19.290      7.479   -0.247       1 
445129.000    40.1854580649   116.2296666832     44.177    -19.113      7.388   -0.222       1 
445130.000    40.1852866610   116.2297530545     43.986    -18.973      7.342   -0.161       1 
445131.000    40.1851167557   116.2298391802     43.829    -18.785      7.329   -0.121       1 
445132.000    40.1849482838   116.2299251175     43.716    -18.656      7.305   -0.073       1 
445133.000    40.1847810130   116.2300106518     43.638    -18.507      7.268   -0.077       1 
445134.000    40.1846151712   116.2300957519     43.600    -18.321      7.220   -0.025       1 
