----------------------------------END OF HEADER--------------------------------------

GPSTime         Latitude        Longitude      H-Ell      Vel-N      Vel-E    Vel-U       Q  
(sec)            (Deg)            (Deg)        (m)      (m/s)      (m/s)    (m/s)          
137381.000    22.6824140216   113.7814771768      1.352      0.708     -8.999   -0.023       1 
137382.000    22.6824208032   113.7813879852      1.346      0.775     -9.256    0.024       1 
137383.000    22.6824281227   113.7812967837      1.363      0.807     -9.446    0.045       1 
137384.000    22.6824350491   113.7812056187      1.377      0.740     -9.224   -0.020       1 
137385.000    22.6824413439   113.7811174924      1.384      0.683     -8.883    0.027       1 
137386.000    22.6824472842   113.7810334029      1.383      0.622     -8.228   -0.001       1 
137387.000    22.6824522398   113.7809617848      1.385      0.452     -6.509   -0.006       1 
137388.000    22.6824560941   113.7809008294      1.393      0.415     -6.075   -0.007       1 
137389.000    22.6824600315   113.7808415175      1.391      0.462     -6.194   -0.006       1 
137390.000    22.6824647210   113.7807774532      1.390      0.573     -6.932   -0.011       1 
137391.000    22.6824704187   113.7807059357      1.389      0.693     -7.756   -0.018       1 
137392.000    22.6824767614   113.7806269802      1.387      0.700     -8.307   -0.006       1 
137393.000    22.6824828262   113.7805459023      1.377      0.687     -8.431   -0.024       1 
137394.000    22.6824883424   113.7804633193      1.378      0.580     -8.469   -0.009       1 
137395.000    22.6824934513   113.7803814380      1.376      0.550     -8.358    0.019       1 
137396.000    22.6824997720   113.7803010965      1.374      0.856     -8.001   -0.029       2 
137397.000    22.6825092062   113.7802239570      1.375      1.149     -7.640   -0.032       2 
137398.000    22.6825198506   113.7801510944      1.379      1.143     -7.296   -0.020       2 
137399.000    22.6825303995   113.7800815184      1.270      1.258     -6.990    0.075       0 
137400.000    22.6825413395   113.7800152189      1.277      1.208     -6.575   -0.011       0 
137401.000    22.6825519979   113.7799530708      1.282      1.103     -6.180    0.056       0 
137402.000    22.6825612397   113.7798954647      1.289      0.982     -5.625    0.005       0 
137403.000    22.6825695438   113.7798489086      1.292      0.906     -4.012   -0.013       0 
137404.000    22.6825810017   113.7798105310      1.270      1.412     -3.410   -0.026       1 
137405.000    22.6825995489   113.7797781270      1.225      2.045     -2.655   -0.047       1 
137406.000    22.6826225337   113.7797526141      1.189      2.779     -2.386   -0.075       1 
137407.000    22.6826550560   113.7797276490      1.166      3.833     -2.158   -0.044       1 
137408.000    22.6826923709   113.7797093087      1.167      4.152     -1.472    0.018       1 
137409.000    22.6827335371   113.7796976236      1.174      4.981     -0.935   -0.016       1 
137410.000    22.6827846236   113.7796912935      1.171      6.010     -0.332    0.074       1 
137411.000    22.6828417724   113.7796916030      1.151      6.587      0.354   -0.023       1 
137412.000    22.6829036168   113.7796975926      1.113      7.224      0.879   -0.099       1 
137413.000    22.6829696584   113.7797082938      1.035      7.472      1.245   -0.066       2 
137414.000    22.6830396246   113.7797200850      0.988      7.962      1.029   -0.057       2 
137415.000    22.6831114395   113.7797281865      0.972      7.870      0.556    0.039       2 
137416.000    22.6831817644   113.7797331517      0.956      7.712      0.402   -0.051       2 
137417.000    22.6832514339   113.7797377522      0.935      7.772      0.496    0.011       1 
137418.000    22.6833220103   113.7797433068      0.921      7.788      0.602    0.008       1 
137419.000    22.6833921604   113.7797493718      0.943      7.793      0.596    0.053       1 
137420.000    22.6834623272   113.7797551929      0.964      7.838      0.578   -0.016       1 
137421.000    22.6835328078   113.7797609365      0.963      7.731      0.573   -0.012       0 
137422.000    22.6836017680   113.7797670134      0.959      7.526      0.650   -0.027       0 
137423.000    22.6836682518   113.7797732776      0.952      7.175      0.650    0.005       0 
137424.000    22.6837312321   113.7797793681      0.951      6.748      0.536   -0.009       0 
137425.000    22.6837917269   113.7797850502      0.952      6.634      0.493   -0.008       0 
137426.000    22.6838511476   113.7797902126      0.955      6.592      0.594    0.005       0 
137427.000    22.6839102123   113.7797946773      0.961      6.585      0.481    0.007       0 
137428.000    22.6839701370   113.7797987115      0.962      6.753      0.426    0.055       0 
137429.000    22.6840332684   113.7798029466      0.951      7.304      0.487   -0.021       0 
137430.000    22.6841027105   113.7798077450      0.941      8.078      0.479   -0.052       0 
137431.000    22.6841794887   113.7798116062      0.932      8.973      0.340   -0.012       0 
137432.000    22.6842615900   113.7798132218      0.915      9.179      0.102    0.022       0 
137433.000    22.6843464334   113.7798147063      0.908      9.514      0.270    0.013       0 
137434.000    22.6844343266   113.7798183807      0.923      9.888      0.505    0.006       0 
137435.000    22.6845240353   113.7798238076      0.923      9.974      0.575    0.009       0 
137436.000    22.6846154731   113.7798301953      0.934     10.315      0.677   -0.038       1 
137437.000    22.6847104339   113.7798374491      0.930     10.590      0.715   -0.024       1 
137438.000    22.6848063182   113.7798451865      0.942     10.659      0.862    0.003       1 
137439.000    22.6849017638   113.7798538222      0.963     10.489      0.928    0.039       1 
137440.000    22.6849962844   113.7798632354      1.006     10.419      0.956   -0.012       1 
137441.000    22.6850904367   113.7798726116      1.008     10.536      1.003    0.010       1 
137442.000    22.6851854049   113.7798825450      0.998     10.491      1.161   -0.009       1 
137443.000    22.6852793034   113.7798931689      0.975     10.405      1.100    0.030       1 
137444.000    22.6853733180   113.7799051313      0.942     10.366      1.243   -0.109       1 
137445.000    22.6854660641   113.7799180949      0.883     10.157      1.340   -0.038       1 
137446.000    22.6855559176   113.7799311169      0.859      9.724      1.234   -0.021       1 
137447.000    22.6856418515   113.7799430709      0.843      9.223      1.147   -0.009       1 
137448.000    22.6857202310   113.7799524434      0.846      8.006      0.794   -0.005       1 
137449.000    22.6857881375   113.7799588497      0.815      7.258      0.543   -0.020       1 
137450.000    22.6858499553   113.7799637843      0.860      5.981      0.579   -0.109       1 
137451.000    22.6859011685   113.7799675921      0.986      5.320      0.383    0.088       1 
137452.000    22.6859429540   113.7799711199      1.030      4.133      0.433    0.099       1 
137453.000    22.6859774131   113.7799768174      1.023      3.407      0.852   -0.042       1 
137454.000    22.6860055863   113.7799858583      1.013      2.962      1.148    0.016       1 
137455.000    22.6860300390   113.7799998647      1.014      2.882      1.750   -0.019       1 
137456.000    22.6860561658   113.7800226030      0.992      3.056      2.779   -0.055       1 
137457.000    22.6860813992   113.7800533344      0.951      3.095      3.732   -0.067       1 
137458.000    22.6861071824   113.7800935183      0.940      2.788      4.399    0.009       1 
137459.000    22.6861278647   113.7801350545      0.947      2.188      4.174    0.015       1 
137460.000    22.6861441521   113.7801745472      0.957      1.788      3.991    0.015       1 
137461.000    22.6861550576   113.7802149316      0.976      1.206      4.617    0.027       1 
137462.000    22.6861584946   113.7802594209      1.016      0.256      4.681    0.070       1 
137463.000    22.6861558630   113.7803025181      1.063     -0.352      4.457    0.049       1 
137464.000    22.6861527085   113.7803458063      1.104     -0.336      4.466    0.026       1 
137465.000    22.6861531799   113.7803930935      1.133      0.149      4.984   -0.013       1 
137466.000    22.6861591877   113.7804434918      1.151      0.735      5.373    0.006       1 
137467.000    22.6861665807   113.7804981517      1.165      0.833      5.731    0.000       1 
137468.000    22.6861729901   113.7805547820      1.171      0.724      6.008    0.022       1 
137469.000    22.6861770391   113.7806144121      1.171      0.370      6.260   -0.009       1 
137470.000    22.6861773005   113.7806742226      1.172     -0.047      6.233    0.007       1 
137471.000    22.6861751696   113.7807360679      1.189     -0.286      6.641    0.003       1 
137472.000    22.6861731018   113.7808038304      1.204     -0.187      7.185    0.002       1 
137473.000    22.6861722279   113.7808757216      1.214     -0.072      7.598    0.005       1 
137474.000    22.6861715991   113.7809516011      1.229     -0.088      7.885    0.003       1 
137475.000    22.6861694312   113.7810304864      1.227     -0.308      8.359    0.025       1 
137476.000    22.6861648712   113.7811134629      1.233     -0.565      8.723    0.023       1 
137477.000    22.6861586550   113.7811986320      1.215     -0.729      8.759   -0.061       1 
137478.000    22.6861520608   113.7812855647      1.187     -0.713      9.091   -0.024       1 
137479.000    22.6861454285   113.7813730609      1.181     -0.722      8.927   -0.010       1 
137480.000    22.6861379295   113.7814583503      1.154     -0.850      8.673   -0.009       1 
137481.000    22.6861302850   113.7815422951      1.144     -0.833      8.598    0.012       1 
137482.000    22.6861239915   113.7816244795      1.158     -0.662      8.137    0.097       1 
137483.000    22.6861186089   113.7817024389      1.225     -0.601      7.829    0.016       1 
137484.000    22.6861139989   113.7817758526      1.253     -0.471      7.199    0.012       1 
137485.000    22.6861108234   113.7818431715      1.250     -0.289      6.637   -0.013       1 
137486.000    22.6861111831   113.7819070553      1.253      0.154      6.245    0.016       1 
137487.000    22.6861140141   113.7819635013      1.265      0.290      5.339    0.032       1 
137488.000    22.6861169217   113.7820116402      1.258      0.319      4.379    0.001       1 
137489.000    22.6861191021   113.7820461229      1.245      0.237      3.133    0.001       1 
137490.000    22.6861192120   113.7820738650      1.235      0.059      2.785   -0.014       1 
137491.000    22.6861184697   113.7821002299      1.224     -0.097      2.811   -0.027       1 
137492.000    22.6861209158   113.7821333736      1.214      0.358      3.867   -0.025       1 
137493.000    22.6861289690   113.7821756787      1.204      0.965      4.409   -0.037       1 
137494.000    22.6861386927   113.7822207141      1.185      1.163      4.932   -0.019       1 
137495.000    22.6861464121   113.7822698051      1.169      0.821      5.265    0.006       1 
137496.000    22.6861514298   113.7823234101      1.148      0.472      5.654   -0.046       1 
137497.000    22.6861552783   113.7823779064      1.120      0.431      5.649   -0.012       1 
137498.000    22.6861590448   113.7824344746      1.097      0.412      5.902   -0.044       1 
137499.000    22.6861620033   113.7824915447      1.072      0.293      5.833   -0.006       1 
137500.000    22.6861641940   113.7825466028      1.049      0.256      5.539   -0.043       1 
137501.000    22.6861655055   113.7825996658      1.028      0.111      5.445   -0.024       1 
137502.000    22.6861652155   113.7826512538      0.991     -0.052      5.242   -0.048       1 
137503.000    22.6861637078   113.7827011261      0.956     -0.185      5.089   -0.020       1 
137504.000    22.6861616025   113.7827497312      0.933     -0.238      4.896   -0.027       1 
137505.000    22.6861590246   113.7827965841      0.922     -0.284      4.725   -0.018       1 
137506.000    22.6861564840   113.7828417523      0.914     -0.264      4.544   -0.018       1 
137507.000    22.6861543000   113.7828850163      0.910     -0.220      4.320   -0.004       1 
137508.000    22.6861528835   113.7829261850      0.912     -0.145      4.090   -0.022       1 
137509.000    22.6861520315   113.7829641098      0.912     -0.090      3.596   -0.000       1 
137510.000    22.6861512110   113.7829970992      0.906     -0.091      3.242   -0.016       1 
137511.000    22.6861502730   113.7830294025      0.901     -0.105      3.404   -0.000       1 
137512.000    22.6861495125   113.7830620454      0.902     -0.087      3.283    0.009       1 
137513.000    22.6861487633   113.7830966448      0.912     -0.090      3.989    0.040       1 
137514.000    22.6861477429   113.7831353769      0.930     -0.110      3.879    0.002       1 
137515.000    22.6861462704   113.7831717136      0.939     -0.090      3.522   -0.024       0 
137516.000    22.6861448969   113.7832029353      0.945     -0.193      2.959    0.059       0 
137517.000    22.6861438787   113.7832300797      0.964     -0.075      2.470    0.077       0 
137518.000    22.6861432652   113.7832494898      0.981     -0.051      1.715   -0.013       0 
137519.000    22.6861428765   113.7832617468      0.999      0.001      0.818    0.019       0 
137520.000    22.6861426926   113.7832672512      1.004     -0.014      0.320   -0.003       0 
137521.000    22.6861426594   113.7832683320      1.004     -0.001      0.004   -0.007       0 
137522.000    22.6861426698   113.7832683165      1.005      0.004     -0.005   -0.006       1 
137523.000    22.6861426774   113.7832683052      1.005      0.004     -0.005   -0.005       1 
137524.000    22.6861426821   113.7832683004      1.004     -0.000     -0.006   -0.007       1 
137525.000    22.6861426851   113.7832682996      1.003     -0.000     -0.004   -0.002       1 
137526.000    22.6861426873   113.7832683001      1.001     -0.001     -0.005   -0.002       1 
137527.000    22.6861426832   113.7832683028      0.999     -0.003     -0.006    0.002       1 
137528.000    22.6861426775   113.7832683019      0.998     -0.003     -0.006    0.001       1 
137529.000    22.6861426725   113.7832682998      0.997     -0.003     -0.003    0.003       1 
137530.000    22.6861426697   113.7832682966      0.997     -0.002     -0.003    0.003       1 
137531.000    22.6861426664   113.7832682975      0.996     -0.002     -0.002    0.002       1 
137532.000    22.6861426634   113.7832682996      0.996     -0.002     -0.004    0.002       1 
137533.000    22.6861426577   113.7832683043      0.997     -0.002     -0.000    0.002       1 
137534.000    22.6861426574   113.7832683085      0.997     -0.001     -0.001    0.003       1 
137535.000    22.6861426609   113.7832683125      0.998     -0.001     -0.003    0.005       1 
137536.000    22.6861426696   113.7832683136      0.999     -0.001     -0.005    0.005       1 
137537.000    22.6861426776   113.7832683112      0.999     -0.001     -0.005    0.003       1 
137538.000    22.6861426873   113.7832683043      1.000      0.000     -0.005    0.002       1 
137539.000    22.6861426990   113.7832682974      1.001      0.001     -0.004    0.001       1 
137540.000    22.6861427123   113.7832682916      1.002      0.001     -0.004    0.000       1 
137541.000    22.6861427215   113.7832682857      1.002      0.001     -0.003   -0.001       1 
137542.000    22.6861427263   113.7832682825      1.002      0.001     -0.003   -0.004       1 
137543.000    22.6861427282   113.7832682854      1.002      0.002     -0.002   -0.006       1 
137544.000    22.6861427296   113.7832682921      1.002      0.001     -0.003   -0.004       1 
137545.000    22.6861427288   113.7832683005      1.002      0.001     -0.010   -0.005       1 
137546.000    22.6861427187   113.7832688070      1.001     -0.004      0.137   -0.007       1 
137547.000    22.6861424784   113.7832755284      1.002     -0.055      1.551    0.017       1 
137548.000    22.6861417401   113.7832996332      1.011     -0.120      3.317    0.015       1 
137549.000    22.6861416778   113.7833357732      1.026      0.004      3.603    0.023       1 
137550.000    22.6861424390   113.7833725254      1.038      0.088      3.900    0.017       1 
137551.000    22.6861416611   113.7834091985      1.046     -0.099      3.372    0.019       1 
137552.000    22.6861400173   113.7834397707      1.057     -0.151      2.925    0.008       1 
137553.000    22.6861384347   113.7834627927      1.066     -0.136      1.988    0.024       1 
137554.000    22.6861370042   113.7834812804      1.077     -0.154      1.828    0.007       1 
137555.000    22.6861355558   113.7834982362      1.088     -0.148      1.660    0.015       1 
137556.000    22.6861342798   113.7835136955      1.096     -0.141      1.549    0.008       1 
137557.000    22.6861330081   113.7835294239      1.107     -0.137      1.665    0.013       1 
137558.000    22.6861317241   113.7835456264      1.116     -0.147      1.650    0.006       1 
137559.000    22.6861301748   113.7835647241      1.129     -0.217      2.506   -0.002       1 
137560.000    22.6861277611   113.7835948325      1.148     -0.322      3.645    0.034       1 
137561.000    22.6861246059   113.7836332386      1.180     -0.391      4.261    0.035       1 
137562.000    22.6861213123   113.7836762112      1.225     -0.285      4.381   -0.112       1 
137563.000    22.6861181698   113.7837206469      1.299     -0.357      4.777    0.102       1 
137564.000    22.6861149544   113.7837678553      1.354     -0.344      4.782    0.074       1 
137565.000    22.6861123013   113.7838131419      1.406     -0.295      4.457    0.063       2 
137566.000    22.6861103051   113.7838543911      1.468     -0.204      3.976    0.055       2 
137567.000    22.6861088321   113.7838915976      1.518     -0.151      3.740    0.018       0 
137568.000    22.6861075274   113.7839309596      1.536     -0.150      4.061    0.013       0 
137569.000    22.6861071394   113.7839701246      1.538     -0.034      3.894   -0.022       0 
137570.000    22.6861076070   113.7840062374      1.513      0.047      3.490   -0.033       0 
137571.000    22.6861085353   113.7840394686      1.478      0.105      3.291   -0.037       0 
137572.000    22.6861095731   113.7840706564      1.446      0.075      3.154   -0.051       0 
137573.000    22.6861105908   113.7841024887      1.415      0.158      3.410   -0.035       0 
137574.000    22.6861115113   113.7841356285      1.375      0.139      3.353   -0.063       0 
137575.000    22.6861124400   113.7841670896      1.314      0.108      3.118   -0.071       0 
137576.000    22.6861129879   113.7841965991      1.276      0.072      2.951   -0.037       2 
137577.000    22.6861130176   113.7842242583      1.269      0.005      2.753    0.028       2 
137578.000    22.6861129337   113.7842507334      1.277     -0.046      2.745    0.015       0 
137579.000    22.6861128628   113.7842783664      1.268     -0.024      3.054    0.024       0 
137580.000    22.6861124679   113.7843126577      1.224     -0.050      4.165   -0.094       0 
137581.000    22.6861116850   113.7843557082      1.114     -0.096      4.473   -0.133       0 
137582.000    22.6861112557   113.7843994242      0.990     -0.036      4.513   -0.118       0 
137583.000    22.6861112802   113.7844436388      0.898      0.003      4.544   -0.112       0 
137584.000    22.6861113783   113.7844879396      0.819     -0.003      4.545   -0.084       0 
137585.000    22.6861111862   113.7845315908      0.766     -0.037      4.344   -0.050       0 
