
GPSTime         Latitude        Longitude      H-Ell      Vel-N      Vel-E    Vel-U       Q  
(sec)            (Deg)            (Deg)        (m)      (m/s)      (m/s)    (m/s)          
97357.000    22.6995586902   114.3418464907     38.106      3.990      4.300   -0.101       1 
97358.000    22.6996031404   114.3418830288     38.009      5.296      3.376   -0.097       1 
97359.000    22.6996546115   114.3419150797     37.915      5.915      3.254   -0.109       1 
97360.000    22.6997096007   114.3419462963     37.864      6.337      3.103   -0.033       1 
97361.000    22.6997693148   114.3419748069     37.862      6.685      2.748   -0.014       1 
97362.000    22.6998295150   114.3420012425     37.861      6.604      2.676   -0.054       1 
97363.000    22.6998881336   114.3420281450     37.899      6.416      2.944    0.009       1 
97364.000    22.6999470267   114.3420584835     37.903      6.722      3.264    0.012       1 
97365.000    22.7000090082   114.3420907870     37.901      6.894      3.328   -0.010       1 
97366.000    22.7000706796   114.3421215668     37.883      6.797      3.018    0.004       1 
97367.000    22.7001325893   114.3421501712     37.893      6.988      3.004   -0.024       1 
97368.000    22.7001982276   114.3421803188     37.900      7.558      3.261    0.031       1 
97369.000    22.7002667348   114.3422127918     37.938      7.717      3.484    0.029       1 
97370.000    22.7003379205   114.3422475052     37.965      7.989      3.696    0.018       1 
97371.000    22.7004113427   114.3422847999     37.979      8.301      4.005    0.012       1 
97372.000    22.7004863720   114.3423243280     37.990      8.270      4.092    0.001       1 
97373.000    22.7005613003   114.3423650957     37.986      8.394      4.248   -0.003       1 
97374.000    22.7006381497   114.3424070330     37.977      8.581      4.302    0.015       1 
97375.000    22.7007159467   114.3424478428     37.978      8.693      4.139    0.001       1 
97376.000    22.7007961153   114.3424874302     37.980      9.020      4.063    0.035       1 
97377.000    22.7008776992   114.3425260292     38.007      9.134      3.968    0.041       1 
97378.000    22.7009613549   114.3425648316     38.012      9.316      3.970    0.005       1 
97379.000    22.7010450192   114.3426020059     38.005      9.165      3.679    0.010       1 
97380.000    22.7011277954   114.3426358873     38.013      9.123      3.314   -0.005       1 
97381.000    22.7012100244   114.3426662635     37.995      9.043      2.981   -0.007       1 
97382.000    22.7012922843   114.3426928986     37.979      9.183      2.517   -0.027       1 
97383.000    22.7013765002   114.3427159752     37.938      9.508      2.285   -0.038       1 
97384.000    22.7014641229   114.3427378561     37.876      9.915      2.307   -0.091       1 
97385.000    22.7015544738   114.3427617549     37.831     10.038      2.589   -0.027       1 
97386.000    22.7016457795   114.3427877446     37.791     10.148      2.643   -0.050       1 
97387.000    22.7017367247   114.3428134523     37.750      9.901      2.810   -0.010       1 
97388.000    22.7018248038   114.3428408341     37.758      9.466      2.938   -0.073       1 
97389.000    22.7019079722   114.3428722305     37.741      9.074      3.533   -0.019       1 
97390.000    22.7019896271   114.3429092698     37.716      9.169      4.045   -0.118       1 
97391.000    22.7020726272   114.3429521677     37.686      9.370      4.685    0.070       1 
97392.000    22.7021583080   114.3429983874     37.698      9.499      4.792   -0.007       1 
97393.000    22.7022448894   114.3430454359     37.758      9.769      4.944    0.099       1 
97394.000    22.7023327087   114.3430930513     37.762      9.633      4.862    0.066       1 
97395.000    22.7024177739   114.3431392160     37.849      9.057      4.579    0.038       1 
97396.000    22.7024968312   114.3431825016     37.871      8.578      4.316   -0.004       1 
97397.000    22.7025698329   114.3432262319     37.938      7.773      4.592    0.095       1 
97398.000    22.7026362554   114.3432691211     38.052      7.007      4.396    0.137       1 
97399.000    22.7026966973   114.3433098195     38.210      6.472      4.086    0.124       1 
97400.000    22.7027548692   114.3433485168     38.359      6.569      3.874    0.172       1 
97401.000    22.7028165989   114.3433864835     38.515      6.973      3.751    0.119       1 
97402.000    22.7028792701   114.3434211771     38.640      6.804      3.506    0.144       1 
97403.000    22.7029389010   114.3434544658     38.779      6.380      3.348    0.125       1 
97404.000    22.7029933178   114.3434854462     38.908      5.681      3.013    0.139       1 
97405.000    22.7030414521   114.3435129805     39.058      5.009      2.656    0.140       1 
97406.000    22.7030851708   114.3435375471     39.177      4.741      2.472    0.124       1 
97407.000    22.7031281310   114.3435608837     39.294      4.877      2.359    0.147       1 
97408.000    22.7031727190   114.3435843296     39.414      4.863      2.452    0.145       1 
97409.000    22.7032143788   114.3436063135     39.526      4.110      2.027    0.130       1 
97410.000    22.7032441509   114.3436220535     39.616      2.776      1.359    0.083       1 
97411.000    22.7032650078   114.3436327696     39.675      2.018      0.895    0.059       1 
97412.000    22.7032831012   114.3436395475     39.718      2.031      0.569    0.046       1 
97413.000    22.7033062782   114.3436445963     39.756      3.090      0.519    0.057       1 
97414.000    22.7033401325   114.3436519184     39.807      4.398      1.125    0.039       1 
97415.000    22.7033824326   114.3436670497     39.864      4.887      1.889    0.069       1 
97416.000    22.7034271416   114.3436887347     39.942      4.957      2.383    0.068       1 
97417.000    22.7034700294   114.3437116096     40.028      4.598      2.242    0.088       1 
97418.000    22.7035073828   114.3437314284     40.126      3.475      1.708    0.086       1 
97419.000    22.7035322168   114.3437442658     40.197      2.050      0.970    0.052       1 
97420.000    22.7035476261   114.3437520944     40.241      1.535      0.735    0.052       1 
97421.000    22.7035601432   114.3437584229     40.279      1.220      0.560    0.027       1 
97422.000    22.7035701298   114.3437634022     40.305      0.989      0.465    0.034       1 
97423.000    22.7035775580   114.3437671363     40.326      0.620      0.289    0.012       1 
97424.000    22.7035804784   114.3437686085     40.335     -0.018     -0.007    0.004       1 
97425.000    22.7035802495   114.3437685028     40.334      0.006      0.006    0.003       1 
97426.000    22.7035834824   114.3437701237     40.342      1.082      0.500    0.038       1 
97427.000    22.7036011699   114.3437789454     40.385      2.903      1.324    0.073       1 
97428.000    22.7036315600   114.3437935223     40.454      3.489      1.527    0.069       1 
97429.000    22.7036627498   114.3438076987     40.508      3.552      1.479    0.063       1 
97430.000    22.7036981824   114.3438238423     40.556      4.389      1.921    0.042       1 
97431.000    22.7037387421   114.3438436222     40.611      4.330      2.134    0.080       1 
97432.000    22.7037774432   114.3438644037     40.662      4.297      2.178    0.016       1 
97433.000    22.7038193868   114.3438877370     40.695      4.915      2.543    0.042       1 
97434.000    22.7038659455   114.3439135957     40.732      5.470      2.806    0.013       1 
97435.000    22.7039158197   114.3439407690     40.747      5.687      2.972    0.031       1 
97436.000    22.7039671176   114.3439684113     40.775      5.551      2.856    0.104       1 
97437.000    22.7040182627   114.3439964174     40.800      5.705      2.882    0.026       1 
97438.000    22.7040715978   114.3440258735     40.831      6.070      3.025    0.056       1 
97439.000    22.7041280879   114.3440560844     40.817      6.196      2.646   -0.082       1 
97440.000    22.7041868641   114.3440866391     40.829      6.629      3.197    0.036       1 
97441.000    22.7042473554   114.3441188078     40.846      6.707      3.432   -0.081       1 
97442.000    22.7043053695   114.3441552795     40.875      6.343      3.801    0.009       1 
97443.000    22.7043605706   114.3441946013     40.886      6.094      4.224   -0.010       1 
97444.000    22.7044152111   114.3442381064     40.901      6.250      4.755   -0.036       1 
97445.000    22.7044715027   114.3442846651     40.920      6.234      4.722    0.011       1 
97446.000    22.7045290305   114.3443313623     40.930      6.409      4.808    0.029       1 
97447.000    22.7045869084   114.3443783871     40.939      6.391      4.847   -0.027       1 
97448.000    22.7046448114   114.3444256102     40.940      6.553      4.953   -0.033       1 
97449.000    22.7047062353   114.3444758294     40.946      7.045      5.365    0.023       1 
97450.000    22.7047701606   114.3445275701     40.982      7.059      5.272    0.038       1 
97451.000    22.7048339819   114.3445777953     41.016      7.152      5.097    0.023       1 
97452.000    22.7049018080   114.3446259180     41.013      7.878      4.802   -0.059       1 
97453.000    22.7049767209   114.3446702193     40.983      8.498      4.316    0.013       1 
97454.000    22.7050555134   114.3447121792     40.990      8.942      4.304   -0.015       1 
97455.000    22.7051382963   114.3447553758     40.985      9.368      4.587   -0.007       1 
97456.000    22.7052252757   114.3448013705     40.963      9.899      4.891   -0.021       1 
97457.000    22.7053166740   114.3448504364     40.953     10.368      5.204   -0.018       1 
97458.000    22.7054124627   114.3449022983     40.951     10.817      5.479   -0.010       1 
97459.000    22.7055119112   114.3449567248     40.951     11.172      5.645    0.008       1 
97460.000    22.7056147117   114.3450126301     40.963     11.597      5.810    0.048       1 
97461.000    22.7057212206   114.3450698815     40.968     11.998      5.958    0.009       1 
97462.000    22.7058311454   114.3451283851     40.952     12.358      6.100    0.021       1 
97463.000    22.7059445401   114.3451888351     40.981     12.789      6.292    0.031       1 
97464.000    22.7060616157   114.3452512275     41.068     13.138      6.539    0.108       1 
97465.000    22.7061817238   114.3453156749     41.248     13.452      6.732    0.280       1 
97466.000    22.7063041312   114.3453819633     41.563     13.670      6.912    0.367       1 
97467.000    22.7064276740   114.3454490567     41.928     13.592      6.903    0.363       1 
97468.000    22.7065480103   114.3455145367     42.386     13.072      6.635    0.476       1 
97469.000    22.7066629649   114.3455774416     42.934     12.387      6.246    0.574       1 
97470.000    22.7067720292   114.3456363887     43.487     11.748      5.845    0.512       1 
97471.000    22.7068750930   114.3456908385     44.047     11.081      5.372    0.633       1 
97472.000    22.7069724373   114.3457423344     44.537     10.467      5.235    0.572       1 
97473.000    22.7070630552   114.3457935156     45.094      9.590      5.326    0.482       1 
97474.000    22.7071450611   114.3458456441     45.501      8.613      5.337    0.366       1 
97475.000    22.7072188716   114.3458973862     45.851      7.836      5.305    0.338       1 
97476.000    22.7072875362   114.3459492820     46.220      7.490      5.276    0.350       1 
97477.000    22.7073556572   114.3459999215     46.548      7.558      5.115    0.326       1 
97478.000    22.7074242209   114.3460493066     46.860      7.602      5.040    0.312       1 
97479.000    22.7074929248   114.3460978015     47.176      7.607      4.963    0.316       1 
97480.000    22.7075625116   114.3461444450     47.492      7.765      4.662    0.320       1 
97481.000    22.7076333066   114.3461891440     47.776      7.788      4.460    0.288       1 
97482.000    22.7077036980   114.3462320389     48.014      7.732      4.322    0.203       1 
97483.000    22.7077730184   114.3462713677     48.204      7.578      3.829    0.179       1 
97484.000    22.7078414575   114.3463068801     48.277      7.602      3.406    0.142       1 
97485.000    22.7079106304   114.3463378069     48.399      7.617      3.006    0.101       1 
97486.000    22.7079808151   114.3463667636     48.522      7.835      2.853    0.166       1 
97487.000    22.7080530129   114.3463946555     48.668      8.159      2.821    0.097       1 
97488.000    22.7081277233   114.3464210198     48.775      8.349      2.602    0.190       1 
97489.000    22.7082046820   114.3464468244     48.934      8.609      2.604    0.009       1 
97490.000    22.7082821243   114.3464731755     49.074      8.435      2.744    0.208       1 
97491.000    22.7083573830   114.3465006650     49.289      8.334      2.960    0.253       1 
97492.000    22.7084319486   114.3465292595     49.519      8.278      2.987    0.335       1 
97493.000    22.7085068894   114.3465572508     49.678      8.315      2.828    0.057       1 
97494.000    22.7085838335   114.3465846677     49.771      8.669      2.766    0.157       1 
97495.000    22.7086626869   114.3466108593     49.916      8.728      2.607    0.092       1 
97496.000    22.7087405104   114.3466346110     49.955      8.662      2.425    0.077       1 
97497.000    22.7088181746   114.3466580527     50.004      8.471      2.401    0.021       1 
97498.000    22.7088945287   114.3466806775     50.066      8.437      2.283    0.036       1 
97499.000    22.7089696732   114.3467033580     50.083      8.201      2.294    0.082       1 
97500.000    22.7090427092   114.3467253401     50.126      7.955      2.202   -0.061       1 
97501.000    22.7091143169   114.3467462812     50.147      7.900      2.112   -0.001       1 
97502.000    22.7091870275   114.3467667583     50.174      8.210      2.078    0.029       1 
97503.000    22.7092611987   114.3467868147     50.232      8.145      2.007    0.042       1 
97504.000    22.7093340274   114.3468059467     50.194      7.980      1.984    0.004       1 
97505.000    22.7094048641   114.3468248760     50.154      7.721      1.812   -0.020       1 
97506.000    22.7094736336   114.3468426732     50.109      7.602      1.783   -0.092       1 
97507.000    22.7095418502   114.3468593541     50.081      7.520      1.774   -0.096       1 
97508.000    22.7096092629   114.3468748431     50.119      7.430      1.638    0.058       1 
97509.000    22.7096763093   114.3468899953     50.219      7.414      1.498    0.031       1 
97510.000    22.7097424448   114.3469056027     50.253      7.177      1.726    0.034       1 
97511.000    22.7098043837   114.3469225692     50.259      6.562      1.799   -0.082       1 
97512.000    22.7098610728   114.3469397000     50.250      6.026      1.681    0.022       1 
97513.000    22.7099133656   114.3469553618     50.220      5.625      1.445   -0.091       1 
97514.000    22.7099640491   114.3469686210     50.172      5.582      1.274    0.003       1 
97515.000    22.7100130346   114.3469808880     50.188      4.767      1.154   -0.001       1 
97516.000    22.7100527421   114.3469918827     50.213      4.194      0.945    0.093       1 
97517.000    22.7100891275   114.3470024106     50.246      4.062      1.177    0.021       1 
97518.000    22.7101285696   114.3470141781     50.302      4.516      1.204   -0.040       1 
97519.000    22.7101693365   114.3470259117     50.422      4.739      1.410    0.210       1 
97520.000    22.7102158213   114.3470394288     50.562      5.595      1.435    0.112       1 
97521.000    22.7102681910   114.3470541127     50.666      5.828      1.518    0.074       1 
97522.000    22.7103194353   114.3470673824     50.748      5.454      1.312    0.035       1 
97523.000    22.7103686663   114.3470805126     50.859      5.435      1.308    0.103       1 
97524.000    22.7104167274   114.3470936659     50.927      5.206      1.367    0.104       1 
97525.000    22.7104632669   114.3471070314     51.014      5.257      1.450    0.088       1 
97526.000    22.7105124593   114.3471218411     51.108      5.648      1.537    0.119       1 
97527.000    22.7105657852   114.3471374508     51.215      6.022      1.613    0.151       1 
97528.000    22.7106193180   114.3471525144     51.325      5.789      1.552    0.072       1 
97529.000    22.7106694993   114.3471665873     51.467      5.309      1.424    0.133       1 
97530.000    22.7107153940   114.3471797107     51.590      4.838      1.320    0.134       1 
97531.000    22.7107577488   114.3471919357     51.698      4.519      1.209    0.048       1 
97532.000    22.7107976024   114.3472039580     51.737      4.284      1.205    0.037       1 
97533.000    22.7108348720   114.3472154687     51.778      3.956      1.129    0.040       1 
97534.000    22.7108685320   114.3472257323     51.817      3.438      0.975    0.032       1 
97535.000    22.7108966447   114.3472343008     51.851      2.869      0.821    0.008       1 
97536.000    22.7109198854   114.3472415324     51.875      2.034      0.621   -0.032       1 
97537.000    22.7109380942   114.3472471531     51.896      1.991      0.570    0.008       1 
97538.000    22.7109599265   114.3472533948     51.925      2.907      0.721    0.057       1 
97539.000    22.7109919084   114.3472618844     51.988      4.190      1.040    0.081       1 
97540.000    22.7110356913   114.3472732819     52.101      5.494      1.347    0.142       1 
97541.000    22.7110918140   114.3472879952     52.262      6.971      1.787    0.179       1 
97542.000    22.7111553845   114.3473060345     52.475      6.949      1.943    0.207       1 
97543.000    22.7112175276   114.3473248842     52.707      6.984      1.938    0.242       1 
97544.000    22.7112838964   114.3473449506     52.983      7.734      2.219    0.313       1 
97545.000    22.7113535047   114.3473659030     53.198      7.759      2.107    0.164       1 
97546.000    22.7114238291   114.3473864733     53.349      7.734      2.094    0.157       1 
97547.000    22.7114940541   114.3474064304     53.510      7.908      2.096    0.149       1 
97548.000    22.7115682375   114.3474279435     53.648      8.569      2.389    0.138       1 
97549.000    22.7116489488   114.3474517085     53.839      9.276      2.550    0.253       1 
97550.000    22.7117356887   114.3474765813     54.001      9.877      2.547    0.127       1 
97551.000    22.7118268112   114.3475016310     54.120     10.309      2.632    0.116       1 
97552.000    22.7119220192   114.3475281411     54.278     10.745      2.904    0.188       1 
97553.000    22.7120208001   114.3475574106     54.438     11.035      3.120    0.062       1 
97554.000    22.7121206632   114.3475867977     54.546     11.106      2.943    0.122       1 
97555.000    22.7122211404   114.3476144266     54.793     11.117      2.811    0.255       1 
97556.000    22.7123224035   114.3476425107     54.949     11.341      3.017    0.070       1 
97557.000    22.7124268453   114.3476733753     55.055     11.798      3.136    0.149       1 
97558.000    22.7125334800   114.3477043853     55.142     11.778      3.166    0.042       1 
97559.000    22.7126395149   114.3477351242     55.228     11.630      3.199    0.137       1 
97560.000    22.7127443766   114.3477669358     55.379     11.727      3.360    0.132       1 
97561.000    22.7128505045   114.3477977620     55.499     11.648      3.032    0.144       1 
97562.000    22.7129548133   114.3478274039     55.658     11.378      3.023    0.099       1 
97563.000    22.7130588013   114.3478571725     55.732     11.590      3.059    0.154       1 
97564.000    22.7131652516   114.3478872920     55.865     11.897      3.206    0.047       1 
