----------------------------------END OF HEADER--------------------------------------

GPSTime         Latitude        Longitude      H-Ell      Vel-N      Vel-E    Vel-U       Q  
(sec)            (Deg)            (Deg)        (m)      (m/s)      (m/s)    (m/s)          
137381.000    22.6824139283   113.7814791207      1.482      0.707     -8.996   -0.025       1 
137382.000    22.6824206918   113.7813899271      1.476      0.774     -9.258    0.023       1 
137383.000    22.6824280143   113.7812987303      1.492      0.808     -9.445    0.046       1 
137384.000    22.6824349524   113.7812075588      1.508      0.740     -9.224   -0.020       1 
137385.000    22.6824412503   113.7811194345      1.514      0.685     -8.882    0.030       1 
137386.000    22.6824471926   113.7810353402      1.514      0.622     -8.230   -0.001       1 
137387.000    22.6824521573   113.7809637226      1.516      0.449     -6.510   -0.010       1 
137388.000    22.6824560140   113.7809027716      1.524      0.415     -6.079   -0.007       1 
137389.000    22.6824599469   113.7808434626      1.521      0.463     -6.196   -0.005       1 
137390.000    22.6824646254   113.7807794025      1.519      0.573     -6.934   -0.010       1 
137391.000    22.6824703066   113.7807078819      1.518      0.692     -7.756   -0.018       1 
137392.000    22.6824766537   113.7806289231      1.517      0.700     -8.307   -0.007       1 
137393.000    22.6824827329   113.7805478476      1.507      0.690     -8.417   -0.021       1 
137394.000    22.6824882624   113.7804652618      1.509      0.580     -8.471   -0.009       1 
137395.000    22.6824933751   113.7803833825      1.506      0.548     -8.358    0.015       1 
137396.000    22.6824996271   113.7803030353      1.504      0.858     -8.013   -0.026       2 
137397.000    22.6825089758   113.7802258824      1.506      1.152     -7.638   -0.028       2 
137398.000    22.6825196204   113.7801530135      1.511      1.145     -7.299   -0.017       2 
137399.000    22.6825301559   113.7800834549      1.399      1.273     -6.989    0.098       0 
137400.000    22.6825410645   113.7800171394      1.407      1.204     -6.577   -0.016       0 
137401.000    22.6825517296   113.7799549977      1.412      1.099     -6.165    0.051       0 
137402.000    22.6825609743   113.7798973885      1.419      0.984     -5.628    0.007       0 
137403.000    22.6825692077   113.7798508115      1.423      0.909     -4.030   -0.008       0 
137404.000    22.6825803928   113.7798123523      1.402      1.414     -3.452   -0.022       1 
137405.000    22.6825985690   113.7797797388      1.358      2.043     -2.695   -0.050       1 
137406.000    22.6826212647   113.7797540036      1.318      2.778     -2.423   -0.078       1 
137407.000    22.6826535692   113.7797287349      1.298      3.832     -2.196   -0.044       1 
137408.000    22.6826906984   113.7797100707      1.295      4.151     -1.507    0.017       1 
137409.000    22.6827317775   113.7796980913      1.302      4.977     -0.964   -0.023       1 
137410.000    22.6827828178   113.7796914814      1.299      6.007     -0.359    0.069       1 
137411.000    22.6828399675   113.7796915805      1.281      6.590      0.340   -0.017       1 
137412.000    22.6829018274   113.7796974118      1.245      7.232      0.867   -0.088       1 
137413.000    22.6829678766   113.7797080329      1.167      7.472      1.249   -0.066       2 
137414.000    22.6830378332   113.7797198607      1.118      7.962      1.032   -0.056       2 
137415.000    22.6831096391   113.7797280786      1.102      7.868      0.566    0.036       2 
137416.000    22.6831799650   113.7797330784      1.087      7.713      0.392   -0.051       2 
137417.000    22.6832496298   113.7797376697      1.065      7.768      0.490    0.005       1 
137418.000    22.6833202165   113.7797431895      1.053      7.784      0.589    0.000       1 
137419.000    22.6833903526   113.7797492677      1.073      7.793      0.589    0.054       1 
137420.000    22.6834605210   113.7797550982      1.094      7.840      0.570   -0.012       1 
137421.000    22.6835310069   113.7797608321      1.093      7.731      0.569   -0.013       0 
137422.000    22.6835999683   113.7797668943      1.090      7.524      0.653   -0.030       0 
137423.000    22.6836664519   113.7797731589      1.082      7.175      0.651    0.006       0 
137424.000    22.6837294309   113.7797792529      1.081      6.744      0.528   -0.015       0 
137425.000    22.6837899274   113.7797849397      1.083      6.633      0.479   -0.010       0 
137426.000    22.6838493450   113.7797901116      1.085      6.595      0.600    0.009       0 
137427.000    22.6839084008   113.7797946030      1.090      6.590      0.485    0.015       0 
137428.000    22.6839683317   113.7797986390      1.092      6.753      0.421    0.055       0 
137429.000    22.6840314620   113.7798028706      1.080      7.305      0.494   -0.019       0 
137430.000    22.6841009094   113.7798076817      1.072      8.077      0.485   -0.054       0 
137431.000    22.6841776796   113.7798115888      1.061      8.978      0.333   -0.005       0 
137432.000    22.6842597821   113.7798132384      1.044      9.174      0.110    0.014       0 
137433.000    22.6843446275   113.7798147045      1.038      9.508      0.273    0.004       0 
137434.000    22.6844325210   113.7798183287      1.053      9.887      0.495    0.005       0 
137435.000    22.6845222321   113.7798237316      1.053      9.972      0.568    0.005       0 
137436.000    22.6846136660   113.7798301030      1.063     10.315      0.678   -0.038       1 
137437.000    22.6847086294   113.7798373495      1.060     10.587      0.712   -0.029       1 
137438.000    22.6848045148   113.7798450761      1.072     10.662      0.866    0.008       1 
137439.000    22.6848999597   113.7798536930      1.093     10.484      0.925    0.032       1 
137440.000    22.6849944812   113.7798631041      1.135     10.421      0.948   -0.008       1 
137441.000    22.6850886371   113.7798724737      1.139     10.537      1.010    0.011       1 
137442.000    22.6851836067   113.7798824095      1.128     10.493      1.166   -0.006       1 
137443.000    22.6852775026   113.7798930085      1.105     10.403      1.088    0.028       1 
137444.000    22.6853715296   113.7799049419      1.074     10.367      1.233   -0.108       1 
137445.000    22.6854642734   113.7799178863      1.014     10.156      1.327   -0.039       1 
137446.000    22.6855541305   113.7799309014      0.990      9.721      1.224   -0.025       1 
137447.000    22.6856400591   113.7799428841      0.974      9.219      1.149   -0.016       1 
137448.000    22.6857184441   113.7799523015      0.978      8.010      0.802    0.000       1 
137449.000    22.6857863422   113.7799587500      0.947      7.253      0.546   -0.026       1 
137450.000    22.6858481345   113.7799637049      0.988      5.976      0.589   -0.117       1 
137451.000    22.6858993576   113.7799675007      1.115      5.318      0.380    0.085       1 
137452.000    22.6859411428   113.7799709958      1.159      4.141      0.435    0.112       1 
137453.000    22.6859756481   113.7799765422      1.157      3.406      0.847   -0.043       1 
137454.000    22.6860038598   113.7799852900      1.143      2.963      1.112    0.017       1 
137455.000    22.6860284343   113.7799989641      1.143      2.883      1.707   -0.017       1 
137456.000    22.6860547808   113.7800213739      1.124      3.056      2.734   -0.054       1 
137457.000    22.6860802021   113.7800518803      1.081      3.097      3.709   -0.063       1 
137458.000    22.6861061672   113.7800919068      1.069      2.789      4.372    0.010       1 
137459.000    22.6861269931   113.7801333472      1.077      2.194      4.160    0.023       1 
137460.000    22.6861434141   113.7801727591      1.085      1.787      3.959    0.015       1 
137461.000    22.6861545782   113.7802130467      1.105      1.206      4.579    0.026       1 
137462.000    22.6861583875   113.7802574616      1.143      0.255      4.642    0.069       1 
137463.000    22.6861559587   113.7803005592      1.190     -0.355      4.447    0.044       1 
137464.000    22.6861527741   113.7803438485      1.232     -0.338      4.479    0.023       1 
137465.000    22.6861530318   113.7803911483      1.262      0.148      5.010   -0.014       1 
137466.000    22.6861588863   113.7804415650      1.280      0.736      5.381    0.007       1 
137467.000    22.6861662807   113.7804962287      1.294      0.833      5.722    0.000       1 
137468.000    22.6861727427   113.7805528513      1.300      0.725      5.997    0.023       1 
137469.000    22.6861769081   113.7806124711      1.301      0.371      6.242   -0.008       1 
137470.000    22.6861772825   113.7806722716      1.301     -0.046      6.228    0.009       1 
137471.000    22.6861751951   113.7807341096      1.317     -0.287      6.641    0.001       1 
137472.000    22.6861731008   113.7808018823      1.334     -0.185      7.184    0.004       1 
137473.000    22.6861721947   113.7808737691      1.343     -0.073      7.595    0.003       1 
137474.000    22.6861715826   113.7809496489      1.358     -0.090      7.877    0.000       1 
137475.000    22.6861694669   113.7810285395      1.357     -0.308      8.351    0.025       1 
137476.000    22.6861649411   113.7811115167      1.363     -0.566      8.721    0.022       1 
137477.000    22.6861587563   113.7811966917      1.346     -0.731      8.745   -0.065       1 
137478.000    22.6861521563   113.7812836234      1.317     -0.706      9.093   -0.014       1 
137479.000    22.6861455370   113.7813711266      1.312     -0.716      8.928   -0.000       1 
137480.000    22.6861380565   113.7814564094      1.284     -0.851      8.673   -0.011       1 
137481.000    22.6861303928   113.7815403546      1.275     -0.834      8.605    0.010       1 
137482.000    22.6861240784   113.7816225253      1.287     -0.665      8.140    0.094       1 
137483.000    22.6861186922   113.7817004945      1.355     -0.600      7.835    0.018       1 
137484.000    22.6861140616   113.7817739100      1.383     -0.468      7.207    0.018       1 
137485.000    22.6861108325   113.7818412298      1.381     -0.291      6.648   -0.017       1 
137486.000    22.6861110724   113.7819051171      1.384      0.156      6.253    0.019       1 
137487.000    22.6861138686   113.7819615612      1.395      0.290      5.344    0.033       1 
137488.000    22.6861167558   113.7820097168      1.390      0.320      4.379    0.002       1 
137489.000    22.6861189554   113.7820441909      1.376      0.238      3.124    0.002       1 
137490.000    22.6861191891   113.7820719265      1.366      0.058      2.764   -0.016       1 
137491.000    22.6861184607   113.7820982845      1.354     -0.100      2.822   -0.030       1 
137492.000    22.6861206960   113.7821314388      1.343      0.359      3.890   -0.023       1 
137493.000    22.6861285543   113.7821737896      1.335      0.968      4.430   -0.034       1 
137494.000    22.6861382647   113.7822188245      1.316      1.164      4.914   -0.018       1 
137495.000    22.6861461302   113.7822678853      1.300      0.822      5.249    0.007       1 
137496.000    22.6861512691   113.7823214767      1.278      0.472      5.648   -0.046       1 
137497.000    22.6861551251   113.7823759726      1.251      0.430      5.651   -0.013       1 
137498.000    22.6861589023   113.7824325403      1.228      0.410      5.896   -0.046       1 
137499.000    22.6861618992   113.7824896075      1.203      0.294      5.833   -0.003       1 
137500.000    22.6861640994   113.7825446655      1.180      0.256      5.530   -0.043       1 
137501.000    22.6861654606   113.7825977298      1.159      0.112      5.438   -0.023       1 
137502.000    22.6861652260   113.7826493184      1.123     -0.052      5.235   -0.047       1 
137503.000    22.6861637556   113.7826991890      1.087     -0.184      5.091   -0.019       1 
137504.000    22.6861616717   113.7827477934      1.065     -0.238      4.893   -0.026       1 
137505.000    22.6861591150   113.7827946427      1.052     -0.283      4.724   -0.018       1 
137506.000    22.6861565676   113.7828398140      1.045     -0.263      4.543   -0.016       1 
137507.000    22.6861543629   113.7828830718      1.040     -0.220      4.317   -0.004       1 
137508.000    22.6861529142   113.7829242419      1.043     -0.145      4.092   -0.022       1 
137509.000    22.6861520481   113.7829621695      1.043     -0.089      3.597    0.000       1 
137510.000    22.6861512312   113.7829951570      1.036     -0.092      3.241   -0.018       1 
137511.000    22.6861502935   113.7830274577      1.031     -0.106      3.405   -0.001       1 
137512.000    22.6861495291   113.7830600964      1.031     -0.088      3.282    0.008       1 
137513.000    22.6861487751   113.7830946895      1.041     -0.090      3.988    0.039       1 
137514.000    22.6861477706   113.7831334262      1.059     -0.109      3.871    0.002       1 
137515.000    22.6861463422   113.7831697722      1.069     -0.085      3.519   -0.015       0 
137516.000    22.6861449567   113.7832009834      1.074     -0.190      2.973    0.063       0 
137517.000    22.6861439205   113.7832281317      1.093     -0.079      2.464    0.071       0 
137518.000    22.6861432962   113.7832475305      1.108     -0.051      1.714   -0.013       0 
137519.000    22.6861429076   113.7832597991      1.129      0.003      0.815    0.022       0 
137520.000    22.6861427286   113.7832653040      1.134     -0.013      0.321   -0.002       0 
137521.000    22.6861426960   113.7832663827      1.134     -0.000      0.006   -0.006       0 
137522.000    22.6861427066   113.7832663675      1.135      0.005     -0.005   -0.005       1 
137523.000    22.6861427142   113.7832663562      1.135      0.004     -0.005   -0.005       1 
137524.000    22.6861427190   113.7832663513      1.134      0.000     -0.005   -0.006       1 
137525.000    22.6861427219   113.7832663505      1.132     -0.000     -0.004   -0.002       1 
137526.000    22.6861427242   113.7832663510      1.130     -0.001     -0.005   -0.003       1 
137527.000    22.6861427200   113.7832663537      1.129     -0.004     -0.006    0.002       1 
137528.000    22.6861427143   113.7832663528      1.128     -0.003     -0.006    0.001       1 
137529.000    22.6861427093   113.7832663508      1.127     -0.003     -0.003    0.002       1 
137530.000    22.6861427065   113.7832663476      1.127     -0.002     -0.003    0.003       1 
137531.000    22.6861427032   113.7832663485      1.126     -0.002     -0.003    0.002       1 
137532.000    22.6861427002   113.7832663505      1.126     -0.002     -0.004    0.002       1 
137533.000    22.6861426945   113.7832663553      1.126     -0.002     -0.001    0.002       1 
137534.000    22.6861426942   113.7832663595      1.127     -0.002     -0.001    0.003       1 
137535.000    22.6861426978   113.7832663635      1.128     -0.002     -0.003    0.004       1 
137536.000    22.6861427064   113.7832663646      1.128     -0.002     -0.006    0.004       1 
137537.000    22.6861427144   113.7832663621      1.129     -0.002     -0.005    0.003       1 
137538.000    22.6861427241   113.7832663552      1.130     -0.000     -0.005    0.002       1 
137539.000    22.6861427358   113.7832663483      1.131      0.001     -0.004    0.000       1 
137540.000    22.6861427491   113.7832663426      1.131      0.001     -0.004   -0.000       1 
137541.000    22.6861427582   113.7832663367      1.132      0.001     -0.003   -0.001       1 
137542.000    22.6861427630   113.7832663335      1.132      0.002     -0.003   -0.004       1 
137543.000    22.6861427648   113.7832663363      1.132      0.003     -0.002   -0.005       1 
137544.000    22.6861427663   113.7832663430      1.131      0.001     -0.003   -0.004       1 
137545.000    22.6861427655   113.7832663514      1.131      0.001     -0.009   -0.005       1 
137546.000    22.6861427558   113.7832668562      1.130     -0.004      0.135   -0.008       1 
137547.000    22.6861425193   113.7832735688      1.130     -0.054      1.552    0.019       1 
137548.000    22.6861417680   113.7832976725      1.139     -0.120      3.321    0.015       1 
137549.000    22.6861416356   113.7833338243      1.156      0.004      3.611    0.024       1 
137550.000    22.6861423919   113.7833705775      1.168      0.090      3.894    0.020       1 
137551.000    22.6861416940   113.7834072586      1.177     -0.097      3.370    0.022       1 
137552.000    22.6861400981   113.7834378220      1.186     -0.149      2.919    0.010       1 
137553.000    22.6861385342   113.7834608445      1.196     -0.136      1.985    0.025       1 
137554.000    22.6861371198   113.7834793325      1.206     -0.155      1.826    0.005       1 
137555.000    22.6861356788   113.7834962882      1.217     -0.148      1.660    0.014       1 
137556.000    22.6861344038   113.7835117457      1.225     -0.142      1.548    0.006       1 
137557.000    22.6861331269   113.7835274745      1.236     -0.137      1.664    0.014       1 
137558.000    22.6861318448   113.7835436767      1.245     -0.147      1.650    0.006       1 
137559.000    22.6861302950   113.7835627694      1.257     -0.217      2.505   -0.003       1 
137560.000    22.6861278836   113.7835928761      1.275     -0.322      3.643    0.035       1 
137561.000    22.6861247234   113.7836312814      1.308     -0.392      4.265    0.033       1 
137562.000    22.6861214152   113.7836742579      1.354     -0.267      4.380   -0.086       1 
137563.000    22.6861182585   113.7837186899      1.427     -0.354      4.777    0.107       1 
137564.000    22.6861150419   113.7837658963      1.482     -0.343      4.789    0.076       1 
137565.000    22.6861123693   113.7838111804      1.533     -0.296      4.461    0.060       2 
137566.000    22.6861103546   113.7838524272      1.595     -0.204      3.977    0.055       2 
137567.000    22.6861088712   113.7838896428      1.646     -0.151      3.736    0.017       0 
137568.000    22.6861075322   113.7839290072      1.665     -0.150      4.065    0.012       0 
137569.000    22.6861071044   113.7839681859      1.669     -0.032      3.896   -0.019       0 
137570.000    22.6861075355   113.7840043041      1.645      0.049      3.498   -0.030       0 
137571.000    22.6861084358   113.7840375410      1.610      0.106      3.293   -0.036       0 
137572.000    22.6861094607   113.7840687281      1.578      0.076      3.166   -0.050       0 
137573.000    22.6861104808   113.7841005586      1.547      0.161      3.412   -0.031       0 
137574.000    22.6861114128   113.7841337091      1.508      0.143      3.346   -0.056       0 
137575.000    22.6861123705   113.7841651705      1.448      0.108      3.115   -0.071       0 
137576.000    22.6861129346   113.7841946697      1.408      0.074      2.954   -0.034       2 
137577.000    22.6861129714   113.7842223062      1.398      0.006      2.761    0.029       2 
137578.000    22.6861129002   113.7842487911      1.408     -0.047      2.750    0.013       0 
137579.000    22.6861128445   113.7842764273      1.399     -0.020      3.056    0.030       0 
137580.000    22.6861124694   113.7843107275      1.356     -0.049      4.166   -0.092       0 
137581.000    22.6861116957   113.7843538013      1.250     -0.096      4.475   -0.133       0 
137582.000    22.6861112482   113.7843975079      1.125     -0.037      4.513   -0.119       0 
137583.000    22.6861112686   113.7844417171      1.032      0.003      4.543   -0.112       0 
137584.000    22.6861113606   113.7844860127      0.952     -0.005      4.543   -0.086       0 
137585.000    22.6861111847   113.7845296595      0.898     -0.038      4.342   -0.051       0 
