----------------------------------END OF HEADER--------------------------------------

GPSTime         Latitude        Longitude      H-Ell      Vel-N      Vel-E    Vel-U       Q  
(sec)            (Deg)            (Deg)        (m)      (m/s)      (m/s)    (m/s)          
137381.000    22.6824118855   113.7814686970      0.899      0.708     -9.011   -0.015       1 
137382.000    22.6824187423   113.7813794926      0.891      0.776     -9.249    0.022       1 
137383.000    22.6824260493   113.7812882786      0.911      0.807     -9.448    0.047       1 
137384.000    22.6824329265   113.7811971506      0.921      0.740     -9.225   -0.019       1 
137385.000    22.6824392057   113.7811090249      0.928      0.677     -8.885    0.016       1 
137386.000    22.6824451382   113.7810249539      0.925      0.622     -8.224   -0.004       1 
137387.000    22.6824500563   113.7809533434      0.927      0.457     -6.508    0.004       1 
137388.000    22.6824538963   113.7808923829      0.937      0.421     -6.056   -0.007       1 
137389.000    22.6824578562   113.7808330490      0.938      0.465     -6.180   -0.009       1 
137390.000    22.6824625956   113.7807689510      0.941      0.575     -6.925   -0.012       1 
137391.000    22.6824683635   113.7806974223      0.938      0.694     -7.755   -0.015       1 
137392.000    22.6824746851   113.7806184889      0.933      0.700     -8.310   -0.006       1 
137393.000    22.6824806880   113.7805374216      0.924      0.674     -8.482   -0.017       1 
137394.000    22.6824861451   113.7804548699      0.923      0.578     -8.463   -0.016       1 
137395.000    22.6824912378   113.7803729869      0.922      0.559     -8.357    0.036       1 
137396.000    22.6824978566   113.7802925682      0.919      0.869     -7.947   -0.038       2 
137397.000    22.6825076606   113.7802153674      0.915      1.147     -7.641   -0.036       2 
137398.000    22.6825183199   113.7801425034      0.918      1.137     -7.286   -0.037       2 
137399.000    22.6825289328   113.7800728427      0.824      1.213     -6.991   -0.011       0 
137400.000    22.6825400133   113.7800065558      0.822      1.221     -6.567    0.009       0 
137401.000    22.6825506398   113.7799443968      0.831      1.105     -6.239    0.097       0 
137402.000    22.6825598635   113.7798868129      0.834      0.978     -5.613   -0.011       0 
137403.000    22.6825684814   113.7798402407      0.830      0.921     -3.933   -0.034       0 
137404.000    22.6825811977   113.7798018116      0.804      1.462     -3.228   -0.043       1 
137405.000    22.6826016113   113.7797697149      0.754      2.110     -2.481   -0.031       1 
137406.000    22.6826261462   113.7797447421      0.735      2.842     -2.222   -0.057       1 
137407.000    22.6826599976   113.7797207228      0.703      3.895     -1.989   -0.028       1 
137408.000    22.6826985251   113.7797035199      0.717      4.200     -1.323    0.018       1 
137409.000    22.6827404503   113.7796929552      0.722      5.037     -0.809    0.013       1 
137410.000    22.6827921042   113.7796877568      0.721      6.057     -0.215    0.091       1 
137411.000    22.6828495327   113.7796889556      0.695      6.599      0.417   -0.039       1 
137412.000    22.6829115247   113.7796956351      0.652      7.215      0.930   -0.149       1 
137413.000    22.6829776469   113.7797066998      0.576      7.470      1.230   -0.060       2 
137414.000    22.6830476030   113.7797183286      0.533      7.941      1.007   -0.083       2 
137415.000    22.6831193048   113.7797259163      0.516      7.858      0.513    0.044       2 
137416.000    22.6831895762   113.7797307269      0.497      7.711      0.436   -0.076       2 
137417.000    22.6832592687   113.7797353643      0.480      7.792      0.520    0.034       1 
137418.000    22.6833298447   113.7797410645      0.458      7.810      0.650    0.019       1 
137419.000    22.6834000397   113.7797470801      0.492      7.796      0.623    0.042       1 
137420.000    22.6834701961   113.7797528653      0.513      7.832      0.604   -0.043       1 
137421.000    22.6835406635   113.7797586462      0.506      7.733      0.587   -0.017       0 
137422.000    22.6836096366   113.7797647865      0.502      7.529      0.642   -0.016       0 
137423.000    22.6836761273   113.7797710535      0.496      7.175      0.649    0.006       0 
137424.000    22.6837391153   113.7797771340      0.498      6.761      0.564   -0.001       0 
137425.000    22.6837995987   113.7797827957      0.497      6.641      0.543   -0.027       0 
137426.000    22.6838590120   113.7797879127      0.501      6.585      0.573    0.003       0 
137427.000    22.6839180769   113.7797922633      0.513      6.570      0.471   -0.015       0 
137428.000    22.6839779718   113.7797962857      0.509      6.760      0.447    0.055       0 
137429.000    22.6840411085   113.7798005337      0.498      7.300      0.461   -0.013       0 
137430.000    22.6841105243   113.7798052826      0.485      8.077      0.453   -0.040       0 
137431.000    22.6841872703   113.7798089454      0.481      8.964      0.371   -0.048       0 
137432.000    22.6842693070   113.7798104054      0.460      9.190      0.066    0.064       0 
137433.000    22.6843541674   113.7798119683      0.452      9.539      0.262    0.066       0 
137434.000    22.6844421269   113.7798158596      0.468      9.898      0.542    0.002       0 
137435.000    22.6845318569   113.7798213898      0.467      9.985      0.602    0.013       0 
137436.000    22.6846233256   113.7798278460      0.480     10.310      0.673   -0.045       1 
137437.000    22.6847182892   113.7798351337      0.475     10.598      0.725   -0.014       1 
137438.000    22.6848141817   113.7798429164      0.486     10.648      0.846   -0.008       1 
137439.000    22.6849096575   113.7798516372      0.509     10.506      0.940    0.065       1 
137440.000    22.6850041845   113.7798610643      0.552     10.415      0.987   -0.038       1 
137441.000    22.6850983265   113.7798704656      0.552     10.529      0.978    0.014       1 
137442.000    22.6851933006   113.7798803982      0.542     10.495      1.151    0.006       1 
137443.000    22.6852872376   113.7798911302      0.523     10.414      1.142    0.022       1 
137444.000    22.6853812401   113.7799032173      0.482     10.369      1.283   -0.129       1 
137445.000    22.6854740162   113.7799162647      0.425     10.167      1.387   -0.048       1 
137446.000    22.6855638615   113.7799293145      0.398      9.733      1.264   -0.021       1 
137447.000    22.6856497868   113.7799411473      0.385      9.232      1.135    0.015       1 
137448.000    22.6857280963   113.7799503256      0.383      7.986      0.763   -0.023       1 
137449.000    22.6857959803   113.7799565476      0.357      7.265      0.526    0.005       1 
137450.000    22.6858578645   113.7799613966      0.421      6.006      0.549   -0.044       1 
137451.000    22.6859090444   113.7799652466      0.537      5.329      0.395    0.098       1 
137452.000    22.6859508664   113.7799689129      0.581      4.113      0.434    0.061       1 
137453.000    22.6859853661   113.7799752924      0.554      3.437      0.887   -0.007       1 
137454.000    22.6860137256   113.7799856686      0.557      3.011      1.306    0.011       1 
137455.000    22.6860380919   113.7800012968      0.563      2.934      1.936   -0.034       1 
137456.000    22.6860637255   113.7800257622      0.529      3.113      2.971   -0.064       1 
137457.000    22.6860884330   113.7800577467      0.495      3.121      3.831   -0.079       1 
137458.000    22.6861136375   113.7800988885      0.487      2.824      4.518    0.004       1 
137459.000    22.6861338278   113.7801410586      0.496      2.188      4.233   -0.022       1 
137460.000    22.6861496354   113.7801810910      0.510      1.823      4.122    0.002       1 
137461.000    22.6861595629   113.7802222810      0.528      1.263      4.781    0.034       1 
137462.000    22.6861614884   113.7802676515      0.574      0.314      4.851    0.076       1 
137463.000    22.6861579865   113.7803110565      0.620     -0.325      4.498    0.074       1 
137464.000    22.6861549628   113.7803542978      0.660     -0.350      4.409    0.035       1 
137465.000    22.6861563396   113.7804012238      0.686      0.110      4.868   -0.015       1 
137466.000    22.6861629840   113.7804512948      0.703      0.726      5.340    0.009       1 
137467.000    22.6861703721   113.7805059415      0.714      0.840      5.763   -0.006       1 
137468.000    22.6861765681   113.7805626834      0.719      0.733      6.055    0.010       1 
137469.000    22.6861801380   113.7806225304      0.717      0.392      6.336   -0.014       1 
137470.000    22.6861799228   113.7806825496      0.720     -0.041      6.258    0.004       1 
137471.000    22.6861776007   113.7807444951      0.744     -0.281      6.640    0.013       1 
137472.000    22.6861756467   113.7808121821      0.752     -0.196      7.185   -0.015       1 
137473.000    22.6861749110   113.7808840381      0.764     -0.072      7.605    0.000       1 
137474.000    22.6861742146   113.7809599351      0.778     -0.078      7.915    0.003       1 
137475.000    22.6861718253   113.7810388761      0.772     -0.298      8.395    0.022       1 
137476.000    22.6861671092   113.7811219157      0.781     -0.559      8.731    0.029       1 
137477.000    22.6861607542   113.7812071137      0.761     -0.712      8.813   -0.063       1 
137478.000    22.6861541861   113.7812940396      0.732     -0.735      9.088   -0.063       1 
137479.000    22.6861475012   113.7813815236      0.721     -0.741      8.925   -0.044       1 
137480.000    22.6861399172   113.7814668698      0.700     -0.844      8.672    0.002       1 
137481.000    22.6861323486   113.7815507990      0.692     -0.832      8.570    0.031       1 
137482.000    22.6861261519   113.7816329911      0.713     -0.665      8.121    0.102       1 
137483.000    22.6861207868   113.7817109084      0.772     -0.608      7.808    0.017       1 
137484.000    22.6861162659   113.7817842866      0.799     -0.494      7.164   -0.009       1 
137485.000    22.6861133174   113.7818515294      0.796     -0.292      6.593    0.007       1 
137486.000    22.6861141869   113.7819152174      0.799      0.131      6.205   -0.002       1 
137487.000    22.6861171730   113.7819715939      0.810      0.284      5.319    0.034       1 
137488.000    22.6861201652   113.7820196430      0.794      0.310      4.373   -0.013       1 
137489.000    22.6861222696   113.7820541781      0.784      0.246      3.174   -0.007       1 
137490.000    22.6861218575   113.7820821355      0.774      0.087      2.872   -0.014       1 
137491.000    22.6861210544   113.7821085489      0.768     -0.106      2.765   -0.014       1 
137492.000    22.6861243860   113.7821413193      0.760      0.320      3.767   -0.036       1 
137493.000    22.6861332322   113.7821831075      0.740      0.934      4.324   -0.043       1 
137494.000    22.6861430030   113.7822281437      0.727      1.182      5.009   -0.030       1 
137495.000    22.6861501424   113.7822775765      0.709      0.839      5.332   -0.003       1 
137496.000    22.6861546716   113.7823314058      0.682      0.483      5.681   -0.042       1 
137497.000    22.6861584877   113.7823859187      0.655      0.431      5.643   -0.008       1 
137498.000    22.6861622069   113.7824425137      0.633      0.421      5.926   -0.041       1 
137499.000    22.6861650057   113.7824996531      0.607      0.292      5.837   -0.009       1 
137500.000    22.6861671565   113.7825547273      0.585      0.263      5.572   -0.050       1 
137501.000    22.6861682593   113.7826078615      0.561      0.118      5.474   -0.030       1 
137502.000    22.6861677344   113.7826595321      0.523     -0.046      5.272   -0.055       1 
137503.000    22.6861660646   113.7827094712      0.490     -0.187      5.082   -0.021       1 
137504.000    22.6861638656   113.7827581127      0.469     -0.238      4.905   -0.033       1 
137505.000    22.6861611952   113.7828050116      0.461     -0.285      4.727   -0.022       1 
137506.000    22.6861586828   113.7828501612      0.450     -0.268      4.546   -0.026       1 
137507.000    22.6861565854   113.7828934217      0.451     -0.222      4.327   -0.011       1 
137508.000    22.6861553067   113.7829345390      0.452     -0.151      4.082   -0.029       1 
137509.000    22.6861545159   113.7829724311      0.449     -0.088      3.596    0.002       1 
137510.000    22.6861536791   113.7830054347      0.445     -0.087      3.247   -0.011       1 
137511.000    22.6861527380   113.7830377515      0.443     -0.103      3.401    0.005       1 
137512.000    22.6861519958   113.7830703994      0.446     -0.087      3.289    0.007       1 
137513.000    22.6861512670   113.7831050144      0.461     -0.088      3.992    0.042       1 
137514.000    22.6861501784   113.7831437544      0.475     -0.104      3.907   -0.006       1 
137515.000    22.6861485248   113.7831801080      0.476     -0.112      3.534   -0.073       0 
137516.000    22.6861472010   113.7832113529      0.490     -0.215      2.906    0.050       0 
137517.000    22.6861462557   113.7832384644      0.507     -0.060      2.492    0.092       0 
137518.000    22.6861456868   113.7832579023      0.532     -0.051      1.719   -0.016       0 
137519.000    22.6861452972   113.7832701197      0.543     -0.004      0.831    0.002       0 
137520.000    22.6861450926   113.7832756282      0.547     -0.017      0.318   -0.008       0 
137521.000    22.6861450569   113.7832767175      0.549     -0.004     -0.004   -0.008       0 
137522.000    22.6861450663   113.7832767010      0.550      0.003     -0.003   -0.010       1 
137523.000    22.6861450742   113.7832766898      0.549      0.002     -0.005   -0.009       1 
137524.000    22.6861450786   113.7832766850      0.548     -0.002     -0.007   -0.009       1 
137525.000    22.6861450817   113.7832766842      0.547     -0.001     -0.005   -0.003       1 
137526.000    22.6861450838   113.7832766848      0.545     -0.001     -0.004   -0.003       1 
137527.000    22.6861450800   113.7832766874      0.544     -0.002     -0.006    0.004       1 
137528.000    22.6861450742   113.7832766865      0.542     -0.002     -0.005    0.003       1 
137529.000    22.6861450695   113.7832766842      0.542     -0.001     -0.003    0.005       1 
137530.000    22.6861450666   113.7832766810      0.541     -0.001     -0.002    0.005       1 
137531.000    22.6861450632   113.7832766820      0.541     -0.001     -0.001    0.004       1 
137532.000    22.6861450604   113.7832766840      0.540     -0.002     -0.005    0.003       1 
137533.000    22.6861450546   113.7832766887      0.541     -0.001      0.001    0.003       1 
137534.000    22.6861450543   113.7832766930      0.541     -0.000      0.001    0.004       1 
137535.000    22.6861450578   113.7832766970      0.542      0.000     -0.002    0.007       1 
137536.000    22.6861450666   113.7832766980      0.543     -0.000     -0.004    0.006       1 
137537.000    22.6861450745   113.7832766956      0.544     -0.001     -0.004    0.004       1 
137538.000    22.6861450843   113.7832766886      0.544      0.000     -0.005    0.003       1 
137539.000    22.6861450962   113.7832766816      0.545      0.001     -0.004    0.001       1 
137540.000    22.6861451094   113.7832766758      0.546      0.001     -0.003   -0.000       1 
137541.000    22.6861451187   113.7832766700      0.547      0.000     -0.004   -0.001       1 
137542.000    22.6861451237   113.7832766667      0.547     -0.000     -0.004   -0.007       1 
137543.000    22.6861451257   113.7832766695      0.546      0.000     -0.003   -0.009       1 
137544.000    22.6861451272   113.7832766763      0.546     -0.001     -0.004   -0.007       1 
137545.000    22.6861451262   113.7832766849      0.546     -0.001     -0.012   -0.007       1 
137546.000    22.6861451142   113.7832771982      0.546     -0.001      0.144   -0.006       1 
137547.000    22.6861448577   113.7832839556      0.553     -0.061      1.547    0.009       1 
137548.000    22.6861441749   113.7833080454      0.563     -0.125      3.301    0.014       1 
137549.000    22.6861444117   113.7833440372      0.570     -0.013      3.568    0.013       1 
137550.000    22.6861451994   113.7833807662      0.580      0.087      3.925   -0.000       1 
137551.000    22.6861440794   113.7834175362      0.583     -0.100      3.381    0.011       1 
137552.000    22.6861422264   113.7834482158      0.601     -0.150      2.949   -0.006       1 
137553.000    22.6861405600   113.7834712686      0.612     -0.135      2.002    0.019       1 
137554.000    22.6861390581   113.7834897803      0.623     -0.148      1.836    0.012       1 
137555.000    22.6861375748   113.7835067525      0.636     -0.146      1.662    0.018       1 
137556.000    22.6861362937   113.7835222204      0.645     -0.138      1.553    0.012       1 
137557.000    22.6861350434   113.7835379421      0.656     -0.140      1.668    0.007       1 
137558.000    22.6861337527   113.7835541460      0.665     -0.148      1.648    0.005       1 
137559.000    22.6861322048   113.7835732616      0.681     -0.216      2.507   -0.001       1 
137560.000    22.6861297823   113.7836033774      0.701     -0.325      3.650    0.025       1 
137561.000    22.6861266456   113.7836417844      0.735     -0.393      4.246    0.042       1 
137562.000    22.6861234128   113.7836847263      0.777     -0.353      4.381   -0.242       1 
137563.000    22.6861203289   113.7837291601      0.854     -0.374      4.771    0.075       1 
137564.000    22.6861171203   113.7837763708      0.910     -0.355      4.756    0.069       1 
137565.000    22.6861145543   113.7838216338      0.962     -0.295      4.441    0.072       2 
137566.000    22.6861126381   113.7838628632      1.026     -0.207      3.972    0.053       2 
137567.000    22.6861112128   113.7839000177      1.068     -0.152      3.750    0.009       0 
137568.000    22.6861100491   113.7839393320      1.086     -0.155      4.040    0.015       0 
137569.000    22.6861098319   113.7839783871      1.079     -0.048      3.884   -0.042       0 
137570.000    22.6861104564   113.7840144199      1.051      0.027      3.456   -0.051       0 
137571.000    22.6861115028   113.7840475869      1.012      0.103      3.281   -0.036       0 
137572.000    22.6861125928   113.7840787622      0.982      0.066      3.107   -0.038       0 
137573.000    22.6861136001   113.7841106057      0.953      0.149      3.406   -0.049       0 
137574.000    22.6861144715   113.7841437267      0.905      0.129      3.382   -0.100       0 
137575.000    22.6861152921   113.7841752003      0.839      0.106      3.128   -0.082       0 
137576.000    22.6861157754   113.7842047632      0.805      0.064      2.938   -0.044       2 
137577.000    22.6861157637   113.7842325385      0.818     -0.001      2.726    0.034       2 
137578.000    22.6861156270   113.7842589965      0.818     -0.042      2.730    0.031       0 
137579.000    22.6861154960   113.7842866316      0.806     -0.035      3.052    0.004       0 
137580.000    22.6861150195   113.7843209149      0.754     -0.053      4.161   -0.097       0 
137581.000    22.6861141972   113.7843638972      0.629     -0.102      4.461   -0.137       0 
137582.000    22.6861138481   113.7844076139      0.511     -0.036      4.510   -0.116       0 
137583.000    22.6861138952   113.7844518294      0.421      0.002      4.551   -0.118       0 
137584.000    22.6861140187   113.7844961406      0.345      0.001      4.552   -0.079       0 
137585.000    22.6861137568   113.7845398340      0.295     -0.032      4.353   -0.047       0 
