
   GPSTime         Latitude        Longitude      H-Ell      Vel-N      Vel-E    Vel-U       Q  
     (sec)            (Deg)            (Deg)        (m)      (m/s)      (m/s)    (m/s)          
444931.000    40.2163681423   116.2135008241     61.014    -14.659      7.710   -0.107       1 
444932.000    40.2162352837   116.2135909415     60.897    -14.785      7.633   -0.140       1 
444933.000    40.2161026840   116.2136798151     60.763    -14.618      7.498   -0.126       1 
444934.000    40.2159721733   116.2137671278     60.636    -14.361      7.368   -0.135       1 
444935.000    40.2158439798   116.2138532317     60.514    -14.141      7.298   -0.126       1 
444936.000    40.2157169924   116.2139391479     60.400    -14.068      7.316   -0.124       1 
444937.000    40.2155904641   116.2140252463     60.288    -14.083      7.356   -0.096       1 
444938.000    40.2154629681   116.2141126896     60.164    -14.173      7.526   -0.126       1 
444939.000    40.2153341852   116.2142007173     60.041    -14.458      7.496   -0.119       1 
444940.000    40.2152032350   116.2142892492     59.925    -14.621      7.574   -0.104       1 
444941.000    40.2150710991   116.2143786238     59.816    -14.751      7.652   -0.128       1 
444942.000    40.2149375066   116.2144688793     59.680    -14.923      7.720   -0.117       1 
444943.000    40.2148027966   116.2145598333     59.551    -14.990      7.753   -0.117       1 
444944.000    40.2146674696   116.2146509090     59.430    -15.064      7.753   -0.124       1 
444945.000    40.2145316787   116.2147421607     59.328    -15.096      7.790   -0.081       1 
444946.000    40.2143953600   116.2148336939     59.285    -15.180      7.818   -0.034       1 
444947.000    40.2142585451   116.2149254866     59.279    -15.166      7.807    0.005       1 
444948.000    40.2141222528   116.2150167965     59.321    -15.113      7.755    0.089       1 
444949.000    40.2139862917   116.2151075012     59.404    -15.083      7.697    0.126       1 
444950.000    40.2138506755   116.2151976674     59.532    -15.037      7.672    0.144       1 
444951.000    40.2137151881   116.2152880815     59.710    -15.098      7.733    0.224       1 
444952.000    40.2135787294   116.2153797393     59.917    -15.214      7.852    0.240       1 
444953.000    40.2134416333   116.2154723812     60.200    -15.238      7.890    0.323       1 
444954.000    40.2133046300   116.2155649578     60.509    -15.204      7.869    0.310       1 
444955.000    40.2131676468   116.2156572313     60.810    -15.232      7.853    0.280       1 
444956.000    40.2130301189   116.2157492970     61.108    -15.308      7.828    0.303       1 
444957.000    40.2128922122   116.2158408569     61.390    -15.297      7.776    0.289       1 
444958.000    40.2127545011   116.2159321523     61.674    -15.290      7.776    0.321       1 
444959.000    40.2126169889   116.2160238837     61.974    -15.313      7.860    0.314       1 
444960.000    40.2124783910   116.2161171947     62.281    -15.475      8.003    0.312       1 
444961.000    40.2123385244   116.2162113943     62.590    -15.582      8.019    0.305       1 
444962.000    40.2121976594   116.2163059844     62.882    -15.700      8.089    0.284       1 
444963.000    40.2120558415   116.2164014265     63.189    -15.793      8.171    0.316       1 
444964.000    40.2119131784   116.2164975449     63.477    -15.893      8.187    0.306       1 
444965.000    40.2117695697   116.2165928943     63.813    -15.969      8.066    0.330       1 
444966.000    40.2116258696   116.2166871297     64.092    -15.952      8.018    0.252       1 
444967.000    40.2114821559   116.2167811862     64.295    -15.966      8.007    0.127       1 
444968.000    40.2113382208   116.2168750691     64.460    -16.025      7.960    0.118       1 
444969.000    40.2111928201   116.2169671707     64.579    -16.270      7.733    0.174       1 
444970.000    40.2110452096   116.2170566489     64.637    -16.459      7.593   -0.017       1 
444971.000    40.2108970758   116.2171452570     64.645    -16.440      7.527   -0.035       1 
444972.000    40.2107487005   116.2172329791     64.600    -16.505      7.380   -0.049       1 
444973.000    40.2105995957   116.2173178262     64.501    -16.604      7.147   -0.124       1 
444974.000    40.2104495284   116.2174008511     64.363    -16.701      7.016   -0.200       1 
444975.000    40.2102983668   116.2174821593     64.168    -16.848      6.873   -0.220       1 
444976.000    40.2101460015   116.2175616541     63.908    -16.975      6.677   -0.235       1 
444977.000    40.2099920528   116.2176387075     63.580    -17.166      6.533   -0.484       1 
444978.000    40.2098363360   116.2177147663     63.142    -17.397      6.468   -0.380       1 
444979.000    40.2096792580   116.2177907815     62.742    -17.481      6.475   -0.431       1 
444980.000    40.2095214894   116.2178669736     62.264    -17.547      6.503   -0.493       1 
444981.000    40.2093630956   116.2179431917     61.777    -17.657      6.455   -0.490       1 
444982.000    40.2092031791   116.2180181271     61.274    -17.833      6.368   -0.482       1 
444983.000    40.2090421659   116.2180931463     60.766    -17.926      6.427   -0.529       1 
444984.000    40.2088802901   116.2181688054     60.263    -18.025      6.464   -0.472       1 
444985.000    40.2087176601   116.2182451487     59.761    -18.097      6.513   -0.507       1 
444986.000    40.2085541613   116.2183216168     59.250    -18.204      6.498   -0.467       1 
444987.000    40.2083906840   116.2183978784     58.743    -18.072      6.507   -0.519       1 
444988.000    40.2082285993   116.2184740219     58.238    -17.930      6.467   -0.514       1 
444989.000    40.2080678045   116.2185496271     57.759    -17.793      6.398   -0.447       1 
444990.000    40.2079086239   116.2186252028     57.344    -17.556      6.481   -0.369       1 
444991.000    40.2077514049   116.2187011748     56.957    -17.367      6.418   -0.342       1 
444992.000    40.2075958030   116.2187755802     56.609    -17.180      6.271   -0.302       1 
444993.000    40.2074423446   116.2188491815     56.330    -16.921      6.265   -0.252       1 
444994.000    40.2072911550   116.2189222866     56.096    -16.666      6.181   -0.233       1 
444995.000    40.2071421422   116.2189941417     55.878    -16.429      6.061   -0.186       1 
444996.000    40.2069953784   116.2190642097     55.723    -16.178      5.872   -0.122       1 
444997.000    40.2068510407   116.2191326273     55.590    -15.868      5.787   -0.113       1 
444998.000    40.2067096225   116.2192004203     55.490    -15.528      5.744   -0.056       1 
444999.000    40.2065711921   116.2192672732     55.425    -15.212      5.628   -0.096       1 
445000.000    40.2064355870   116.2193327871     55.353    -14.896      5.524   -0.071       1 
445001.000    40.2063026377   116.2193970374     55.300    -14.656      5.430   -0.038       1 
445002.000    40.2061714189   116.2194600415     55.246    -14.476      5.314   -0.067       1 
445003.000    40.2060417204   116.2195215719     55.163    -14.317      5.180   -0.060       1 
445004.000    40.2059135859   116.2195818603     55.098    -14.140      5.086   -0.052       0 
445005.000    40.2057871460   116.2196412185     55.047    -13.945      5.023   -0.051       1 
445006.000    40.2056624262   116.2196999064     54.993    -13.759      4.970   -0.039       1 
445007.000    40.2055394375   116.2197582570     54.931    -13.551      4.963   -0.060       1 
445008.000    40.2054183246   116.2198165183     54.881    -13.341      4.950   -0.056       1 
445009.000    40.2052990015   116.2198741638     54.827    -13.169      4.851   -0.053       1 
445010.000    40.2051810617   116.2199302785     54.759    -13.011      4.739   -0.070       1 
445011.000    40.2050648638   116.2199859957     54.703    -12.812      4.724   -0.034       1 
445012.000    40.2049503073   116.2200409465     54.657    -12.639      4.636   -0.050       1 
445013.000    40.2048372535   116.2200947663     54.607    -12.465      4.529   -0.071       1 
445014.000    40.2047257176   116.2201473851     54.543    -12.315      4.439   -0.055       1 
445015.000    40.2046149642   116.2201996714     54.493    -12.354      4.496   -0.050       1 
445016.000    40.2045027413   116.2202533414     54.446    -12.587      4.647   -0.047       1 
445017.000    40.2043880003   116.2203090722     54.392    -12.916      4.807   -0.042       1 
445018.000    40.2042697364   116.2203654143     54.331    -13.343      4.825   -0.071       1 
445019.000    40.2041478908   116.2204223547     54.264    -13.700      4.898   -0.056       1 
445020.000    40.2040230880   116.2204800468     54.204    -13.981      4.932   -0.084       1 
445021.000    40.2038962660   116.2205380918     54.131    -14.198      4.982   -0.068       1 
445022.000    40.2037673454   116.2205985454     54.059    -14.446      5.264   -0.061       1 
445023.000    40.2036359170   116.2206617062     53.983    -14.761      5.462   -0.073       1 
445024.000    40.2035012662   116.2207263989     53.883    -15.147      5.577   -0.096       1 
445025.000    40.2033630286   116.2207926307     53.801    -15.554      5.704   -0.129       1 
445026.000    40.2032209925   116.2208605835     53.714    -15.998      5.874   -0.113       1 
445027.000    40.2030747277   116.2209306954     53.605    -16.475      6.057   -0.095       1 
445028.000    40.2029241821   116.2210027318     53.489    -16.954      6.203   -0.119       1 
445029.000    40.2027695385   116.2210766442     53.381    -17.403      6.392   -0.124       1 
445030.000    40.2026110641   116.2211530286     53.263    -17.813      6.594   -0.136       1 
445031.000    40.2024487900   116.2212310332     53.167    -18.202      6.707   -0.135       1 
445032.000    40.2022836576   116.2213101508     53.068    -18.453      6.780   -0.104       1 
445033.000    40.2021161615   116.2213903504     52.975    -18.764      6.892   -0.015       1 
445034.000    40.2019455803   116.2214718279     52.907    -19.053      6.977   -0.138       1 
445035.000    40.2017740664   116.2215537111     52.775    -19.071      6.987   -0.103       1 
445036.000    40.2016015928   116.2216360890     52.731    -19.193      7.042   -0.004       1 
445037.000    40.2014289668   116.2217191227     52.770    -19.156      7.109    0.164       1 
445038.000    40.2012567275   116.2218029041     52.979    -19.133      7.167    0.260       1 
445039.000    40.2010842527   116.2218876917     53.300    -19.170      7.239    0.373       1 
445040.000    40.2009112567   116.2219730046     53.713    -19.266      7.297    0.404       1 
445041.000    40.2007366274   116.2220580492     54.124    -19.512      7.210    0.394       1 
445042.000    40.2005597744   116.2221427996     54.529    -19.749      7.257    0.373       1 
445043.000    40.2003809337   116.2222280800     54.936    -19.973      7.288    0.432       1 
445044.000    40.2002000438   116.2223139238     55.343    -20.176      7.332    0.346       1 
445045.000    40.2000176626   116.2224004949     55.678    -20.303      7.435    0.313       1 
445046.000    40.1998343850   116.2224887199     55.945    -20.386      7.578    0.222       1 
445047.000    40.1996503828   116.2225782804     56.150    -20.454      7.644    0.149       1 
445048.000    40.1994663533   116.2226681482     56.316    -20.403      7.669    0.131       1 
445049.000    40.1992828743   116.2227583448     56.409    -20.361      7.697   -0.048       1 
445050.000    40.1990997360   116.2228484796     56.434    -20.313      7.667    0.081       1 
445051.000    40.1989176667   116.2229384316     56.378    -20.125      7.624   -0.064       1 
445052.000    40.1987370768   116.2230276702     56.254    -19.975      7.570   -0.171       1 
445053.000    40.1985576074   116.2231165003     56.024    -19.875      7.542   -0.220       1 
445054.000    40.1983790576   116.2232043836     55.777    -19.756      7.419   -0.262       1 
445055.000    40.1982018304   116.2232909377     55.460    -19.617      7.354   -0.349       1 
445056.000    40.1980256721   116.2233773506     55.100    -19.505      7.351   -0.395       1 
445057.000    40.1978503131   116.2234637171     54.651    -19.428      7.374   -0.458       1 
445058.000    40.1976758058   116.2235502511     54.172    -19.331      7.376   -0.490       1 
445059.000    40.1975018960   116.2236370139     53.652    -19.306      7.352   -0.503       1 
445060.000    40.1973282006   116.2237229560     53.142    -19.252      7.315   -0.494       1 
445061.000    40.1971551176   116.2238090485     52.644    -19.185      7.351   -0.462       1 
445062.000    40.1969826051   116.2238952903     52.132    -19.146      7.330   -0.479       1 
445063.000    40.1968104373   116.2239811706     51.624    -19.119      7.270   -0.488       1 
445064.000    40.1966383080   116.2240658915     51.112    -19.115      7.176   -0.524       1 
445065.000    40.1964662483   116.2241498848     50.579    -19.100      7.136   -0.513       1 
445066.000    40.1962944774   116.2242335293     50.096    -19.042      7.126   -0.461       1 
445067.000    40.1961233043   116.2243172007     49.588    -18.985      7.129   -0.505       1 
445068.000    40.1959526809   116.2244010947     49.135    -18.923      7.154   -0.466       1 
445069.000    40.1957826243   116.2244850059     48.719    -18.849      7.141   -0.341       1 
445070.000    40.1956133795   116.2245687393     48.409    -18.730      7.116   -0.319       1 
445071.000    40.1954452392   116.2246519047     48.192    -18.594      7.050   -0.200       1 
445072.000    40.1952784069   116.2247341276     48.040    -18.447      6.959   -0.125       1 
445073.000    40.1951131980   116.2248153005     47.956    -18.240      6.879   -0.097       1 
445074.000    40.1949499134   116.2248956862     47.860    -18.028      6.826   -0.086       1 
445075.000    40.1947884830   116.2249754984     47.790    -17.825      6.778   -0.063       1 
445076.000    40.1946287697   116.2250550102     47.698    -17.639      6.745   -0.085       1 
445077.000    40.1944707221   116.2251341940     47.596    -17.475      6.718   -0.096       1 
445078.000    40.1943141355   116.2252126477     47.469    -17.303      6.660   -0.157       1 
445079.000    40.1941591160   116.2252905672     47.373    -17.117      6.618   -0.112       1 
445080.000    40.1940061008   116.2253689427     47.308    -16.903      6.670   -0.052       1 
445081.000    40.1938539243   116.2254458667     47.246    -16.881      6.461   -0.071       1 
445082.000    40.1937014414   116.2255211429     47.165    -17.047      6.411   -0.066       1 
445083.000    40.1935463935   116.2255973430     47.083    -17.406      6.572   -0.075       1 
445084.000    40.1933875568   116.2256757261     46.997    -17.876      6.766   -0.083       1 
445085.000    40.1932246203   116.2257560692     46.914    -18.320      6.928   -0.071       1 
445086.000    40.1930578036   116.2258392169     46.814    -18.717      7.251   -0.139       1 
445087.000    40.1928876332   116.2259268819     46.700    -19.076      7.660   -0.117       1 
445088.000    40.1927138571   116.2260182331     46.614    -19.573      7.772   -0.054       1 
445089.000    40.1925351055   116.2261082561     46.548    -20.093      7.650   -0.129       1 
445090.000    40.1923519064   116.2261980801     46.446    -20.562      7.696   -0.079       1 
445091.000    40.1921649216   116.2262892909     46.348    -20.968      7.842   -0.110       1 
445092.000    40.1919742455   116.2263821198     46.236    -21.347      7.974   -0.094       1 
445093.000    40.1917817701   116.2264760714     46.164    -21.331      7.997   -0.029       1 
445094.000    40.1915907814   116.2265697559     46.214    -21.105      7.955    0.125       1 
445095.000    40.1914017577   116.2266627911     46.381    -20.867      7.891    0.206       1 
445096.000    40.1912153746   116.2267550978     46.656    -20.538      7.825    0.337       1 
445097.000    40.1910315808   116.2268468167     47.030    -20.275      7.786    0.404       1 
445098.000    40.1908505751   116.2269379709     47.428    -19.939      7.734    0.372       1 
445099.000    40.1906722275   116.2270285654     47.831    -19.738      7.713    0.367       1 
445100.000    40.1904948515   116.2271187785     48.215    -19.666      7.663    0.384       1 
445101.000    40.1903178336   116.2272084459     48.618    -19.613      7.602    0.395       1 
445102.000    40.1901417600   116.2272971020     48.986    -19.536      7.524    0.361       1 
445103.000    40.1899661145   116.2273855811     49.317    -19.436      7.533    0.283       1 
445104.000    40.1897912751   116.2274738603     49.591    -19.434      7.519    0.227       1 
445105.000    40.1896161903   116.2275620908     49.824    -19.382      7.487    0.213       1 
445106.000    40.1894427416   116.2276492643     49.988    -19.112      7.359    0.111       1 
445107.000    40.1892720300   116.2277351503     50.123    -18.805      7.277    0.133       1 
445108.000    40.1891039348   116.2278199405     50.293    -18.540      7.133    0.088       1 
445109.000    40.1889375959   116.2279037135     50.336    -18.423      7.122   -0.014       1 
445110.000    40.1887718757   116.2279876302     50.325    -18.419      7.181   -0.026       1 
445111.000    40.1886055860   116.2280725488     50.264    -18.515      7.286   -0.089       1 
445112.000    40.1884378373   116.2281586861     50.138    -18.742      7.399   -0.320       1 
445113.000    40.1882672872   116.2282464693     49.878    -19.123      7.522   -0.238       1 
445114.000    40.1880932490   116.2283348941     49.656    -19.519      7.533   -0.237       1 
445115.000    40.1879166867   116.2284228982     49.386    -19.629      7.487   -0.258       1 
445116.000    40.1877395536   116.2285108417     49.078    -19.713      7.495   -0.355       1 
445117.000    40.1875619953   116.2285987261     48.712    -19.691      7.482   -0.389       1 
445118.000    40.1873849432   116.2286863729     48.298    -19.666      7.463   -0.420       1 
445119.000    40.1872078171   116.2287739668     47.822    -19.673      7.459   -0.433       1 
445120.000    40.1870312246   116.2288623291     47.337    -19.527      7.600   -0.463       1 
445121.000    40.1868558390   116.2289522534     46.889    -19.464      7.699   -0.470       1 
445122.000    40.1866804707   116.2290430741     46.416    -19.489      7.761   -0.473       1 
445123.000    40.1865047440   116.2291343663     45.947    -19.549      7.765   -0.436       1 
445124.000    40.1863284559   116.2292254558     45.499    -19.605      7.740   -0.452       1 
445125.000    40.1861518115   116.2293159705     45.076    -19.605      7.704   -0.357       1 
445126.000    40.1859758760   116.2294057557     44.711    -19.476      7.600   -0.368       1 
445127.000    40.1858008030   116.2294944782     44.387    -19.404      7.521   -0.324       1 
445128.000    40.1856266466   116.2295826909     44.111    -19.286      7.481   -0.238       1 
445129.000    40.1854538749   116.2296700186     43.876    -19.109      7.383   -0.214       1 
445130.000    40.1852824649   116.2297563980     43.687    -18.968      7.339   -0.149       1 
445131.000    40.1851125650   116.2298425471     43.531    -18.782      7.328   -0.116       1 
445132.000    40.1849440854   116.2299284923     43.420    -18.649      7.305   -0.058       1 
445133.000    40.1847768235   116.2300140378     43.341    -18.504      7.269   -0.072       1 
445134.000    40.1846109762   116.2300991429     43.305    -18.322      7.224   -0.028       1 
