+ (1)  软件版本信息
-      软件版本 = " version:2.3.0725 "
-      版权声明 = " 武汉迈普时空导航科技有限公司@CopyRight 2011-2018 "

+ (2)  数据路径
-      工程路径 = " E:/NavData/IntegratedNavData/20200703wnlbs/5/5.ini "
-      数据(惯导) = " E:/NavData/IntegratedNavData/20200703wnlbs/Com18_0703143107_around_wnlbs.bin "
-      数据(流动) = " E:/NavData/IntegratedNavData/20200703wnlbs/5/GNSS/5.pos "
-      数据(结果) = " E:/NavData/IntegratedNavData/20200703wnlbs/5/Loose "

+ (3)  重要处理参数
-      处理模式 = " Loosely Couple "
-      惯导仪器型号 = "  "
-      杆臂安装信息 = " -0.700,-0.250,-0.700 "杆臂量取至L1相位中心
-      目标杆臂信息 = "  0.040,-0.150,-0.060 "
-      基准站的坐标 = "   30 29 17.598715, 114 33 26.740074, 72.2410(m),  0.0000(m),GSL1-2020_07_03 "

+ (4)  时间信息
-      时间(导出) = " 2020/07/06 10:48:57 "
-      时间(数据) = " 2020/07/03 06:31:46 ~ 2020/07/03 07:21:06 "
-      时间(处理) = " 2020/07/03 06:32:33 ~ 2020/07/03 07:21:06 "

+ (5)  结果描述
-      平面投影信息 = 3度带投影,带号38,中央经线114,投影类型:高斯投影

+ (6)  文本输出信息
-      GPSTime      = GPS周内秒                         
-      Latitude     = 纬度                             
-      Longitude    = 经度                             
-      H-Ell        = 椭球高                            
-      Roll         = 横滚                             
-      Pitch        = 俯仰                             
-      Heading      = 航向                             
----------------------------------END OF HEADER--------------------------------------

   GPSTime         Latitude        Longitude      H-Ell          Roll         Pitch       Heading  
     (sec)            (Deg)            (Deg)        (m)         (Deg)         (Deg)         (Deg)  
455554.000    30.4875717490   114.5639935490     27.451    3.31843593    0.27286448  198.52659386 
455555.000    30.4875121918   114.5639673916     27.291    3.42922580    0.15063078  198.04545662 
455556.000    30.4874547264   114.5639433806     27.171    3.36618891    0.20711400  197.37850532 
455557.000    30.4873999898   114.5639212571     27.074    3.51743142    0.24803161  196.98005092 
455558.000    30.4873485734   114.5639000920     26.958    3.62314285    0.10241484  197.30685955 
455559.000    30.4873005135   114.5638799419     26.862    3.65744056    0.32809752  197.65101263 
455560.000    30.4872561443   114.5638610983     26.778    3.56503214    0.34769344  197.90759180 
455561.000    30.4872159757   114.5638438396     26.697    3.44293322    0.32398807  198.14307925 
455562.000    30.4871759604   114.5638263221     26.619    3.25839700    0.64393494  198.50219146 
455563.000    30.4871284973   114.5638050326     26.528    3.47001738    0.94596892  198.90082645 
455564.000    30.4870732668   114.5637797941     26.431    3.67828060    1.09432119  199.37636156 
455565.000    30.4870115845   114.5637509289     26.308    3.82555129    1.04033126  199.91729653 
455566.000    30.4869450009   114.5637189368     26.173    3.63203108    0.93374041  200.48677623 
455567.000    30.4868794484   114.5636865187     26.041    3.57960749    0.67471643  200.98623150 
455568.000    30.4868166630   114.5636555514     25.917    3.87494821    0.86217689  200.45677690 
455569.000    30.4867562668   114.5636279478     25.809    4.12648565    0.76123510  198.89614731 
455570.000    30.4866988217   114.5636040137     25.709    4.16167983    0.67206053  197.28443173 
455571.000    30.4866454392   114.5635834764     25.610    4.00851205    0.53072138  196.07453307 
455572.000    30.4865985581   114.5635657182     25.511    3.95836980    0.35648215  195.98528579 
455573.000    30.4865613901   114.5635514703     25.435    3.97678239    0.22809217  196.05783338 
455574.000    30.4865373130   114.5635422356     25.393    3.94331942    0.33645165  196.11092172 
455575.000    30.4865192254   114.5635352866     25.360    4.05115833    0.35336161  196.10582695 
455576.000    30.4865050063   114.5635298323     25.331    4.16525692    0.34447000  196.07040292 
455577.000    30.4864948555   114.5635259748     25.316    4.14289098    0.44992761  196.00401733 
455578.000    30.4864888424   114.5635236654     25.302    4.23104676    0.43046057  196.00457927 
455579.000    30.4864876586   114.5635232195     25.300    4.24365355    0.56514717  195.98430368 
455580.000    30.4864876735   114.5635232372     25.300    4.25429052    0.56833352  195.98058942 
455581.000    30.4864876586   114.5635232380     25.300    4.24968909    0.59344491  195.98142272 
455582.000    30.4864876601   114.5635232289     25.300    4.24384469    0.63276954  195.97877154 
455583.000    30.4864876632   114.5635232303     25.300    4.24316677    0.63875821  195.97836845 
455584.000    30.4864876659   114.5635232326     25.300    4.24534633    0.66208070  195.97982209 
455585.000    30.4864876675   114.5635232388     25.301    4.25241565    0.66606600  195.97850015 
455586.000    30.4864876657   114.5635232389     25.300    4.25788238    0.66588547  195.98411025 
455587.000    30.4864876715   114.5635232404     25.300    4.25975849    0.66593360  195.98883272 
455588.000    30.4864876729   114.5635232491     25.299    4.26274468    0.66534087  195.99095442 
455589.000    30.4864876694   114.5635232333     25.299    4.25370708    0.67012411  195.99592990 
455590.000    30.4864876701   114.5635232291     25.298    4.25457348    0.66651135  195.99906806 
455591.000    30.4864876705   114.5635232309     25.298    4.24704093    0.65707380  196.00689660 
455592.000    30.4864876697   114.5635232311     25.296    4.24728843    0.65757396  196.00850239 
455593.000    30.4864876718   114.5635232311     25.295    4.23997628    0.64923648  196.00445568 
455594.000    30.4864876754   114.5635232287     25.296    4.24371631    0.65840124  195.99639859 
455595.000    30.4864876770   114.5635232252     25.296    4.24503503    0.66289654  195.99346959 
455596.000    30.4864875049   114.5635231678     25.297    4.24106461    0.66949386  195.98691578 
455597.000    30.4864870861   114.5635230329     25.297    4.23397497    0.67354722  195.98277161 
455598.000    30.4864866164   114.5635228534     25.296    4.22587870    0.68271654  195.97760292 
455599.000    30.4864859981   114.5635226104     25.292    4.21297990    0.69352345  195.97258377 
455600.000    30.4864852648   114.5635223286     25.290    4.19622952    0.71186051  195.96820080 
455601.000    30.4864844061   114.5635220162     25.290    4.18490103    0.74613116  195.94270333 
455602.000    30.4864832839   114.5635216085     25.290    4.17340874    0.75708122  195.91523586 
455603.000    30.4864818254   114.5635210664     25.286    4.18893752    0.73682271  195.88760431 
455604.000    30.4864800434   114.5635204015     25.280    4.21928699    0.72850670  195.84886415 
455605.000    30.4864778889   114.5635196223     25.274    4.23584040    0.72172499  195.80039996 
455606.000    30.4864753911   114.5635187209     25.268    4.23966934    0.69399631  195.74119801 
455607.000    30.4864725099   114.5635176579     25.264    4.24316937    0.69400231  195.67323608 
455608.000    30.4864693628   114.5635165146     25.256    4.24684005    0.68189871  195.58996679 
455609.000    30.4864655721   114.5635151130     25.244    4.44728533    0.66460881  195.49836965 
455610.000    30.4864613306   114.5635137163     25.238    4.35522922    0.67699753  195.19473615 
455611.000    30.4864568550   114.5635124949     25.233    4.37380024    0.75540208  194.31810092 
455612.000    30.4864519637   114.5635113933     25.227    4.35624685    0.79842182  193.09720396 
455613.000    30.4864469248   114.5635105177     25.219    4.24826462    0.83689991  191.61973314 
455614.000    30.4864416417   114.5635096950     25.207    4.34063171    0.90844085  190.16115160 
455615.000    30.4864360356   114.5635088350     25.193    4.26545297    0.86763223  189.00125752 
455616.000    30.4864303167   114.5635079111     25.180    4.30817286    0.86433855  188.19628112 
455617.000    30.4864243297   114.5635070146     25.171    4.29250598    0.84227493  187.46422552 
455618.000    30.4864182421   114.5635061708     25.161    4.27749569    0.86709699  186.74234548 
455619.000    30.4864127970   114.5635054780     25.152    4.24653233    0.86923764  186.14029003 
455620.000    30.4864086572   114.5635048775     25.147    4.30758026    0.86484380  185.92117159 
455621.000    30.4864060515   114.5635045012     25.142    4.32582491    0.81122007  185.82210313 
455622.000    30.4864059587   114.5635044887     25.144    4.34674609    0.81002941  185.82678591 
455623.000    30.4864059566   114.5635044894     25.143    4.34964214    0.82764619  185.82549836 
455624.000    30.4864059616   114.5635044900     25.141    4.35183888    0.83852014  185.82268901 
455625.000    30.4864059685   114.5635044925     25.140    4.34340444    0.85985166  185.81886418 
455626.000    30.4864059686   114.5635044896     25.140    4.34764527    0.87038174  185.82179405 
455627.000    30.4864059658   114.5635044833     25.140    4.34466105    0.87959742  185.82512499 
455628.000    30.4864059671   114.5635044764     25.142    4.34754850    0.88111147  185.83240646 
455629.000    30.4864059692   114.5635044771     25.143    4.34720469    0.88261956  185.83602456 
455630.000    30.4864059698   114.5635044805     25.143    4.34722647    0.89362609  185.84082722 
455631.000    30.4864059728   114.5635044794     25.143    4.34154996    0.88799660  185.83668711 
455632.000    30.4864059656   114.5635044758     25.143    4.34450481    0.89077118  185.83115762 
455633.000    30.4864059624   114.5635044708     25.144    4.34184174    0.89297076  185.83677608 
455634.000    30.4864059649   114.5635044705     25.145    4.33867569    0.89037111  185.84456741 
455635.000    30.4864059588   114.5635044717     25.146    4.33889809    0.89512404  185.84442518 
455636.000    30.4864059547   114.5635044768     25.146    4.34155387    0.90039516  185.84366788 
455637.000    30.4864059482   114.5635044690     25.146    4.34284010    0.90190403  185.85004639 
455638.000    30.4864059427   114.5635044684     25.149    4.34182967    0.90672958  185.84347073 
455639.000    30.4864059338   114.5635044804     25.150    4.35150432    0.90323518  185.84670039 
455640.000    30.4864059341   114.5635044790     25.151    4.35122767    0.90622453  185.83598124 
455641.000    30.4864059395   114.5635044770     25.152    4.35822392    0.89734635  185.83435716 
455642.000    30.4864059386   114.5635044836     25.151    4.35743403    0.89813816  185.82699845 
455643.000    30.4864059335   114.5635044847     25.149    4.35871998    0.89923401  185.82234563 
455644.000    30.4864059324   114.5635044771     25.148    4.35362491    0.90781943  185.81569701 
455645.000    30.4864059291   114.5635044742     25.148    4.35270219    0.90680644  185.81131752 
455646.000    30.4864059234   114.5635044788     25.149    4.35393123    0.90650561  185.81034574 
455647.000    30.4864059170   114.5635044711     25.150    4.35098125    0.90444569  185.81640146 
455648.000    30.4864059265   114.5635044764     25.150    4.35703082    0.89751883  185.81937333 
455649.000    30.4864059268   114.5635044858     25.150    4.35668359    0.89493835  185.81676588 
455650.000    30.4864059354   114.5635044877     25.150    4.35687539    0.89397171  185.81367951 
455651.000    30.4864059374   114.5635044866     25.148    4.35914249    0.89763596  185.81687341 
455652.000    30.4864059357   114.5635044864     25.147    4.35785012    0.89097443  185.81902654 
455653.000    30.4864059306   114.5635044824     25.147    4.36213027    0.88494914  185.81656538 
455654.000    30.4864059369   114.5635044854     25.146    4.36691659    0.88536211  185.81905869 
455655.000    30.4864059433   114.5635044886     25.146    4.36679307    0.88052772  185.82318608 
455656.000    30.4864059484   114.5635044966     25.145    4.36733367    0.87761317  185.82695230 
455657.000    30.4864059515   114.5635044985     25.147    4.37120108    0.87488377  185.81907863 
455658.000    30.4864059344   114.5635044985     25.149    4.37575106    0.87239050  185.81793442 
455659.000    30.4864059325   114.5635044968     25.149    4.38206616    0.86372059  185.81660151 
455660.000    30.4864059394   114.5635044888     25.148    4.38641161    0.85491613  185.82240349 
455661.000    30.4864059372   114.5635044834     25.148    4.39633870    0.84651538  185.82732323 
455662.000    30.4864059349   114.5635044877     25.148    4.38770803    0.82813130  185.83234407 
455663.000    30.4864059358   114.5635044844     25.148    4.40290493    0.82303977  185.83009642 
455664.000    30.4864059427   114.5635044818     25.148    4.40305946    0.81664003  185.82967296 
455665.000    30.4864059478   114.5635044887     25.147    4.40831417    0.81017387  185.83399389 
455666.000    30.4864059399   114.5635044884     25.148    4.40744963    0.80114287  185.82170246 
455667.000    30.4864059331   114.5635044796     25.148    4.41312724    0.79078930  185.83493000 
455668.000    30.4864059378   114.5635044876     25.149    4.41550403    0.79058178  185.81698411 
455669.000    30.4864044377   114.5635043861     25.151    4.37681248    0.90804999  185.54479989 
455670.000    30.4863958649   114.5635043691     25.144    4.48362602    1.35756376  182.77594284 
455671.000    30.4863745509   114.5635060306     25.114    4.39580601    1.50608391  176.74399409 
455672.000    30.4863429690   114.5635087105     25.061    4.16239832    1.35934346  174.54799036 
455673.000    30.4863048087   114.5635104418     25.001    4.12500997    1.28825563  175.60967775 
455674.000    30.4862640861   114.5635108681     24.938    4.09475423    1.18817221  177.31756932 
455675.000    30.4862219508   114.5635096454     24.867    4.12350520    1.14899085  179.22848735 
455676.000    30.4861786772   114.5635072390     24.798    3.95544375    1.04617245  180.50079416 
455677.000    30.4861345594   114.5635050325     24.716    4.22844230    0.95918407  179.98103336 
455678.000    30.4860901037   114.5635045309     24.633    4.37358118    1.05652709  178.23481523 
455679.000    30.4860456634   114.5635047825     24.560    4.18798582    0.95403178  177.74526773 
455680.000    30.4860054725   114.5635047582     24.494    4.17236559    0.70613210  177.85652904 
455681.000    30.4859718667   114.5635047154     24.438    4.09211259    0.59489742  177.85046560 
455682.000    30.4859451435   114.5635039846     24.400    4.07167125    0.71849503  179.05161477 
455683.000    30.4859208922   114.5635019286     24.361    4.22171753    0.70770945  181.14123789 
455684.000    30.4858983124   114.5634993173     24.320    4.43243674    0.70995565  182.68733130 
455685.000    30.4858773713   114.5634974856     24.275    4.49819943    0.74269464  182.23888121 
455686.000    30.4858580856   114.5634963734     24.234    4.41954298    0.70278747  181.28392743 
455687.000    30.4858392667   114.5634956069     24.195    4.38321993    0.70014293  180.32349045 
455688.000    30.4858199955   114.5634951845     24.162    4.27591905    0.69661572  179.38159940 
455689.000    30.4858008616   114.5634951373     24.124    4.33756835    0.72187632  178.40453058 
455690.000    30.4857817371   114.5634954912     24.082    4.33404643    0.71605083  177.43208919 
455691.000    30.4857609059   114.5634963618     24.038    4.33761244    0.88826960  176.26869129 
455692.000    30.4857367219   114.5634980835     23.994    4.35448875    0.97731236  174.77151016 
455693.000    30.4857120619   114.5635003569     23.954    4.26926157    0.91856383  173.68742253 
455694.000    30.4856888574   114.5635025194     23.927    4.26168060    1.08037841  173.34715204 
455695.000    30.4856672893   114.5635043610     23.897    4.00752527    0.90599571  173.57080297 
455696.000    30.4856475082   114.5635058596     23.863    4.11303873    0.93927197  173.83448306 
455697.000    30.4856289706   114.5635074259     23.834    4.27852613    0.89216603  173.62344138 
455698.000    30.4856098553   114.5635091758     23.803    4.30572080    0.84778586  173.37401265 
455699.000    30.4855906883   114.5635110335     23.776    4.20549708    0.90908145  173.13142994 
455700.000    30.4855718434   114.5635129518     23.744    4.13494960    0.90713395  172.90269077 
455701.000    30.4855529195   114.5635149665     23.709    4.14813032    0.82257997  172.66149243 
455702.000    30.4855340301   114.5635171073     23.676    4.16383183    0.87854925  172.41434404 
455703.000    30.4855120004   114.5635196803     23.640    3.97870801    1.15897702  172.20074571 
455704.000    30.4854817874   114.5635232805     23.594    3.77892453    1.25255118  172.03284936 
455705.000    30.4854455193   114.5635276627     23.536    3.66777485    0.85649767  171.90520770 
455706.000    30.4854132745   114.5635315006     23.491    3.70094526    0.87790108  171.94044203 
455707.000    30.4853865923   114.5635343419     23.465    3.80883715    1.12482185  172.34712354 
455708.000    30.4853626625   114.5635364981     23.446    3.86599185    1.31150390  173.08334675 
455709.000    30.4853419398   114.5635380875     23.428    4.17087325    1.09899135  173.62232554 
455710.000    30.4853262014   114.5635395567     23.413    4.25962000    1.14657893  173.39904363 
455711.000    30.4853158104   114.5635405024     23.401    4.27184150    1.19853608  173.36829375 
455712.000    30.4853120617   114.5635408421     23.395    4.29430345    1.18252399  173.36717716 
455713.000    30.4853120980   114.5635408366     23.395    4.30152483    1.35807448  173.36242821 
455714.000    30.4853120106   114.5635408452     23.395    4.29848462    1.36444131  173.35631133 
455715.000    30.4853118063   114.5635408594     23.396    4.31170818    1.36127434  173.35622662 
455716.000    30.4853116320   114.5635408683     23.397    4.31780731    1.35932798  173.35350197 
455717.000    30.4853114705   114.5635408784     23.397    4.33703662    1.35513880  173.35279822 
455718.000    30.4853112612   114.5635408895     23.397    4.33905556    1.35880382  173.34940672 
455719.000    30.4853109400   114.5635409169     23.399    4.37152544    1.35158395  173.35351301 
455720.000    30.4853104587   114.5635409571     23.401    4.41241384    1.33748361  173.35535458 
455721.000    30.4853098768   114.5635410011     23.401    4.49567007    1.32327664  173.35892808 
455722.000    30.4853090857   114.5635410331     23.401    4.58825577    1.30985470  173.37010709 
455723.000    30.4853081338   114.5635410886     23.397    4.65922028    1.27359134  173.39074983 
455724.000    30.4853072877   114.5635411619     23.393    4.67340006    1.26105916  173.39194318 
455725.000    30.4853065612   114.5635412316     23.394    4.67875100    1.24667101  173.38928059 
455726.000    30.4853060520   114.5635412720     23.395    4.68591332    1.23871400  173.38081787 
455727.000    30.4853057977   114.5635412987     23.396    4.69761700    1.24011459  173.38523433 
455728.000    30.4853057027   114.5635412974     23.397    4.70376519    1.24406187  173.38508625 
455729.000    30.4853056547   114.5635412997     23.397    4.70341660    1.25170610  173.38269773 
455730.000    30.4853056320   114.5635413109     23.396    4.70287629    1.25025970  173.38447589 
455731.000    30.4853056055   114.5635413238     23.393    4.71027533    1.25183353  173.39109548 
455732.000    30.4853055769   114.5635413281     23.391    4.71427880    1.25365720  173.39652564 
455733.000    30.4853055406   114.5635413316     23.390    4.71397079    1.24857504  173.39949957 
455734.000    30.4853055065   114.5635413325     23.390    4.71775035    1.25381076  173.40583072 
455735.000    30.4853054818   114.5635413366     23.389    4.72070649    1.25142416  173.40398416 
455736.000    30.4853054604   114.5635413456     23.389    4.72677723    1.25039999  173.40500223 
