GPSTime         Latitude        Longitude      H-Ell      Vel-N      Vel-E    Vel-U       Q  
(sec)            (Deg)            (Deg)        (m)      (m/s)      (m/s)    (m/s)          
133114.000    39.9990394933   116.8209544720     24.206     -5.745      7.331   -0.080       1 
133115.000    39.9989854009   116.8210438876     24.143     -6.270      7.950   -0.042       1 
133116.000    39.9989266769   116.8211406773     24.114     -6.746      8.551   -0.024       1 
133117.000    39.9988646983   116.8212424784     24.075     -6.988      8.788   -0.019       1 
133118.000    39.9988006311   116.8213477610     24.027     -7.254      9.196   -0.052       1 
133119.000    39.9987342510   116.8214578598     23.975     -7.481      9.592   -0.040       1 
133120.000    39.9986660264   116.8215722154     23.945     -7.642      9.880   -0.040       1 
133121.000    39.9985970022   116.8216887906     23.900     -7.686      9.997   -0.045       1 
133122.000    39.9985278379   116.8218061239     23.861     -7.651      9.992   -0.042       1 
133123.000    39.9984593059   116.8219224032     23.813     -7.562      9.852   -0.038       1 
133124.000    39.9983915637   116.8220368401     23.772     -7.478      9.704   -0.044       1 
133125.000    39.9983245848   116.8221494604     23.728     -7.391      9.548   -0.039       1 
133126.000    39.9982584418   116.8222601417     23.724     -7.289      9.372   -0.014       1 
133127.000    39.9981932757   116.8223691193     23.677     -7.163      9.246   -0.066       1 
133128.000    39.9981293609   116.8224770072     23.624     -7.030      9.165   -0.020       1 
133129.000    39.9980666343   116.8225837708     23.592     -6.926      9.056   -0.024       1 
133130.000    39.9980046345   116.8226887644     23.556     -6.850      8.887   -0.037       1 
133131.000    39.9979433656   116.8227920835     23.517     -6.771      8.766   -0.046       0 
133132.000    39.9978816782   116.8228958420     23.482     -7.040      9.098   -0.053       1 
133133.000    39.9978159584   116.8230062223     23.438     -7.526      9.756   -0.048       1 
133134.000    39.9977459562   116.8231246877     23.399     -8.073     10.578   -0.057       1 
133135.000    39.9976701241   116.8232544659     23.331     -8.779     11.564   -0.078       1 
133136.000    39.9975877052   116.8233951717     23.285     -9.511     12.461   -0.037       1 
133137.000    39.9974988955   116.8235460700     23.241    -10.203     13.306   -0.048       1 
133138.000    39.9974040216   116.8237064298     23.186    -10.829     14.044   -0.037       1 
133139.000    39.9973049707   116.8238730822     23.133    -11.171     14.418   -0.045       1 
133140.000    39.9972027302   116.8240441615     23.060    -11.528     14.807   -0.078       1 
133141.000    39.9970976987   116.8242188913     22.996    -11.776     15.036   -0.078       1 
133142.000    39.9969899170   116.8243973714     22.912    -12.163     15.482   -0.072       1 
133143.000    39.9968787851   116.8245812903     22.854    -12.462     15.914   -0.077       1 
133144.000    39.9967664325   116.8247688794     22.798    -12.430     16.043   -0.060       1 
133145.000    39.9966552643   116.8249562787     22.722    -12.270     15.951   -0.083       1 
133146.000    39.9965456630   116.8251424893     22.652    -12.088     15.870   -0.052       1 
133147.000    39.9964370052   116.8253283468     22.591    -12.084     15.860   -0.071       1 
133148.000    39.9963273692   116.8255142396     22.525    -12.267     15.960   -0.066       1 
133149.000    39.9962158877   116.8257026814     22.464    -12.465     16.209   -0.064       1 
133150.000    39.9961025248   116.8258937572     22.398    -12.725     16.446   -0.055       1 
133151.000    39.9959870299   116.8260874216     22.297    -12.910     16.630   -0.085       1 
133152.000    39.9958702193   116.8262825712     22.234    -13.052     16.726   -0.024       1 
133153.000    39.9957519281   116.8264793741     22.174    -13.223     16.906   -0.081       1 
133154.000    39.9956321472   116.8266783873     22.135    -13.347     17.086   -0.025       1 
133155.000    39.9955115718   116.8268794746     22.116    -13.450     17.257    0.016       1 
133156.000    39.9953899510   116.8270827776     22.148    -13.547     17.479    0.008       1 
133157.000    39.9952674364   116.8272885309     22.175    -13.650     17.650    0.061       1 
133158.000    39.9951440937   116.8274962870     22.248    -13.722     17.794    0.092       1 
133159.000    39.9950203066   116.8277049263     22.326    -13.756     17.836    0.070       1 
133160.000    39.9948962070   116.8279142572     22.440    -13.772     17.907    0.182       1 
133161.000    39.9947722355   116.8281237191     22.608    -13.756     17.857    0.148       1 
133162.000    39.9946485796   116.8283324705     22.763    -13.704     17.803    0.170       1 
133163.000    39.9945255459   116.8285405600     22.950    -13.642     17.747    0.200       1 
133164.000    39.9944027677   116.8287482028     23.156    -13.631     17.720    0.222       1 
133165.000    39.9942802266   116.8289553048     23.383    -13.579     17.645    0.277       1 
133166.000    39.9941577853   116.8291618491     23.625    -13.591     17.613    0.205       1 
133167.000    39.9940354867   116.8293674627     23.871    -13.553     17.533    0.267       1 
133168.000    39.9939132944   116.8295722765     24.140    -13.578     17.473    0.237       1 
133169.000    39.9937911425   116.8297763399     24.374    -13.571     17.403    0.267       1 
133170.000    39.9936688356   116.8299798089     24.646    -13.585     17.338    0.246       1 
133171.000    39.9935465425   116.8301821641     24.902    -13.563     17.209    0.280       1 
133172.000    39.9934244233   116.8303827581     25.148    -13.524     17.095    0.195       1 
133173.000    39.9933027591   116.8305829159     25.388    -13.477     17.109    0.217       1 
133174.000    39.9931819578   116.8307830484     25.635    -13.355     17.065    0.257       1 
133175.000    39.9930623971   116.8309826429     25.907    -13.195     17.033    0.258       1 
133176.000    39.9929441032   116.8311821811     26.167    -13.067     17.026    0.271       1 
133177.000    39.9928270351   116.8313809153     26.403    -12.868     16.879    0.283       1 
133178.000    39.9927124387   116.8315767033     26.741    -12.602     16.569    0.465       1 
133179.000    39.9925994429   116.8317703907     27.009    -12.519     16.501    0.337       0 
133180.000    39.9924867427   116.8319629188     27.242    -12.535     16.410    0.231       0 
133181.000    39.9923733157   116.8321548182     27.463    -12.648     16.400    0.145       0 
133182.000    39.9922594092   116.8323469935     27.599    -12.647     16.414    0.068       0 
133183.000    39.9921454876   116.8325391133     27.738    -12.655     16.432    0.093       1 
133184.000    39.9920315887   116.8327323777     27.879    -12.638     16.574    0.147       1 
133185.000    39.9919176167   116.8329277318     28.022    -12.685     16.810    0.128       1 
133186.000    39.9918028071   116.8331262464     28.186    -12.805     17.110    0.201       1 
133187.000    39.9916869764   116.8333286127     28.352    -12.882     17.449    0.140       1 
133188.000    39.9915711579   116.8335354936     28.476    -12.822     17.792    0.117       1 
133189.000    39.9914563291   116.8337457957     28.594    -12.695     18.078    0.116       1 
133190.000    39.9913423579   116.8339592071     28.691    -12.623     18.345    0.062       1 
133191.000    39.9912284294   116.8341753980     28.779    -12.657     18.509    0.074       1 
133192.000    39.9911145485   116.8343926008     28.911    -12.659     18.624    0.087       1 
133193.000    39.9909999473   116.8346127482     28.927    -12.781     18.975   -0.004       1 
133194.000    39.9908841834   116.8348374025     28.918    -12.918     19.396   -0.019       1 
133195.000    39.9907671900   116.8350671540     28.867    -13.075     19.835   -0.082       1 
133196.000    39.9906486682   116.8353020407     28.806    -13.184     20.292   -0.074       1 
133197.000    39.9905302907   116.8355436657     28.619    -13.115     20.926   -0.306       1 
133198.000    39.9904125227   116.8357927092     28.411    -13.075     21.546   -0.224       1 
133199.000    39.9902944987   116.8360481354     28.251    -13.170     22.034   -0.127       1 
133200.000    39.9901750757   116.8363085671     28.091    -13.390     22.421   -0.175       1 
133201.000    39.9900533480   116.8365727399     27.884    -13.625     22.687   -0.257       1 
133202.000    39.9899300209   116.8368401370     27.652    -13.726     23.020   -0.237       1 
133203.000    39.9898057200   116.8371119373     27.396    -13.882     23.366   -0.264       1 
133204.000    39.9896810844   116.8373872556     27.137    -13.783     23.625   -0.273       1 
133205.000    39.9895575959   116.8376651748     26.905    -13.647     23.821   -0.228       1 
133206.000    39.9894352221   116.8379452896     26.626    -13.545     24.018   -0.237       1 
133207.000    39.9893137423   116.8382277686     26.380    -13.434     24.247   -0.278       1 
133208.000    39.9891930691   116.8385129250     26.112    -13.382     24.443   -0.215       1 
133209.000    39.9890727300   116.8388004132     25.899    -13.349     24.645   -0.196       1 
133210.000    39.9889533199   116.8390908011     25.728    -13.148     24.964   -0.148       1 
133211.000    39.9888357064   116.8393855665     25.576    -12.985     25.351   -0.151       1 
133212.000    39.9887190418   116.8396840627     25.442    -12.917     25.628   -0.154       1 
133213.000    39.9886032186   116.8399857894     25.319    -12.795     25.861   -0.095       1 
133214.000    39.9884886295   116.8402896458     25.222    -12.672     26.000   -0.073       1 
133215.000    39.9883754993   116.8405950879     25.187    -12.434     26.152   -0.098       1 
133216.000    39.9882642616   116.8409020356     25.239    -12.313     26.254    0.059       1 
133217.000    39.9881545939   116.8412094699     25.404    -12.007     26.257    0.123       1 
133218.000    39.9880469333   116.8415168202     25.496    -11.862     26.245    0.134       1 
133219.000    39.9879414713   116.8418246013     25.624    -11.552     26.308    0.125       1 
133220.000    39.9878383868   116.8421328847     25.748    -11.303     26.282    0.064       1 
133221.000    39.9877382703   116.8424400278     25.840    -10.952     26.129    0.069       1 
133222.000    39.9876408415   116.8427452241     25.923    -10.702     26.010   -0.091       0 
133223.000    39.9875460621   116.8430495218     25.987    -10.359     25.955    0.062       0 
133224.000    39.9874544561   116.8433540960     26.086    -10.091     26.009    0.111       1 
133225.000    39.9873634989   116.8436581224     26.202    -10.044     25.933    0.088       1 
133226.000    39.9872738052   116.8439619093     26.314     -9.894     25.944    0.130       1 
133227.000    39.9871861026   116.8442667719     26.437     -9.563     26.123    0.132       1 
133228.000    39.9871004747   116.8445738272     26.567     -9.536     26.281    0.127       1 
133229.000    39.9870148789   116.8448826658     26.676     -9.436     26.480    0.095       1 
133230.000    39.9869306124   116.8451941166     26.814     -9.254     26.731    0.157       1 
133231.000    39.9868488364   116.8455089958     26.877     -8.938     27.035    0.002       1 
133232.000    39.9867686799   116.8458276737     26.982     -8.884     27.393    0.100       1 
133233.000    39.9866887781   116.8461505639     27.079     -8.844     27.764    0.088       1 
133234.000    39.9866097294   116.8464781225     27.181     -8.691     28.164    0.112       1 
133235.000    39.9865323841   116.8468105515     27.260     -8.492     28.576    0.050       1 
133236.000    39.9864565590   116.8471476199     27.330     -8.390     28.953    0.019       1 
133237.000    39.9863818034   116.8474861896     27.325     -8.136     28.797    0.047       1 
133238.000    39.9863094526   116.8478243232     27.348     -7.978     28.980   -0.027       1 
133239.000    39.9862377290   116.8481659996     27.233     -7.903     29.389   -0.162       1 
133240.000    39.9861684011   116.8485127621     27.128     -7.506     29.817   -0.106       1 
133241.000    39.9861018545   116.8488631465     26.997     -7.300     29.873   -0.133       1 
133242.000    39.9860372127   116.8492111305     26.814     -7.003     29.485   -0.161       1 
133243.000    39.9859755375   116.8495550336     26.656     -6.718     29.233   -0.097       1 
133244.000    39.9859159020   116.8498955738     26.534     -6.503     28.908   -0.336       1 
133245.000    39.9858594378   116.8502326589     26.272     -6.036     28.642   -0.280       1 
133246.000    39.9858062570   116.8505665308     25.962     -5.785     28.359   -0.330       1 
133247.000    39.9857550472   116.8508971271     25.510     -5.564     28.091   -0.327       1 
133248.000    39.9857064359   116.8512247145     25.132     -5.240     27.849   -0.449       1 
133249.000    39.9856604179   116.8515493456     24.719     -4.990     27.594   -0.372       1 
133250.000    39.9856165251   116.8518709655     24.311     -4.792     27.344   -0.423       1 
133251.000    39.9855743238   116.8521897387     23.851     -4.594     27.110   -0.497       1 
133252.000    39.9855338518   116.8525058868     23.361     -4.385     26.899   -0.517       1 
133253.000    39.9854959157   116.8528197697     22.830     -4.054     26.704   -0.523       1 
133254.000    39.9854608645   116.8531315241     22.345     -3.775     26.523   -0.443       1 
133255.000    39.9854279579   116.8534413852     21.887     -3.543     26.432   -0.438       1 
133256.000    39.9853970847   116.8537514087     21.438     -3.349     26.595   -0.399       1 
133257.000    39.9853675036   116.8540653790     21.048     -3.214     27.028   -0.379       1 
133258.000    39.9853397302   116.8543843166     20.728     -2.988     27.439   -0.320       0 
133259.000    39.9853138326   116.8547078469     20.432     -2.767     27.808   -0.316       0 
133260.000    39.9852891847   116.8550357604     20.168     -2.756     28.185   -0.260       0 
133261.000    39.9852650895   116.8553669315     19.945     -2.611     28.267   -0.202       0 
133262.000    39.9852428807   116.8556964057     19.788     -2.314     27.977   -0.144       0 
133263.000    39.9852233375   116.8560246804     19.660     -2.074     28.168   -0.137       0 
133264.000    39.9852048310   116.8563560394     19.583     -2.002     28.445   -0.041       0 
133265.000    39.9851877689   116.8566907412     19.565     -1.760     28.707   -0.011       0 
133266.000    39.9851737515   116.8570282134     19.570     -1.407     28.934   -0.026       1 
133267.000    39.9851617508   116.8573684913     19.559     -1.243     29.173    0.009       1 
133268.000    39.9851513750   116.8577103417     19.557     -1.046     29.150   -0.030       1 
133269.000    39.9851427782   116.8580521694     19.565     -0.876     29.293    0.001       1 
133270.000    39.9851359831   116.8583966240     19.568     -0.603     29.540   -0.025       1 
133271.000    39.9851317561   116.8587439408     19.562     -0.332     29.771   -0.020       1 
133272.000    39.9851298638   116.8590942167     19.591     -0.104     30.052   -0.032       1 
133273.000    39.9851298670   116.8594475776     19.595      0.104     30.298    0.015       1 
133274.000    39.9851313080   116.8598040120     19.605      0.232     30.564    0.011       1 
133275.000    39.9851349825   116.8601633263     19.632      0.608     30.789    0.026       1 
133276.000    39.9851423483   116.8605254860     19.644      1.000     31.036   -0.008       1 
133277.000    39.9851526104   116.8608902958     19.668      1.239     31.291   -0.056       1 
133278.000    39.9851648225   116.8612584064     19.656      1.484     31.552    0.032       1 
133279.000    39.9851798268   116.8616296375     19.669      1.784     31.835   -0.005       1 
133280.000    39.9851968627   116.8620039152     19.701      1.998     32.104    0.032       1 
133281.000    39.9852163373   116.8623811844     19.728      2.310     32.336    0.006       1 
133282.000    39.9852384176   116.8627613540     19.755      2.557     32.605    0.003       0 
133283.000    39.9852625072   116.8631441310     19.816      2.761     32.776    0.083       0 
133284.000    39.9852887698   116.8635291647     19.910      3.027     32.971    0.154       1 
133285.000    39.9853166422   116.8639143768     20.028      3.218     32.680    0.114       1 
133286.000    39.9853463666   116.8642953617     20.168      3.414     32.469    0.172       1 
133287.000    39.9853782253   116.8646754678     20.340      3.658     32.431    0.187       1 
133288.000    39.9854116046   116.8650540494     20.544      3.753     32.214    0.192       1 
133289.000    39.9854456162   116.8654299846     20.775      3.847     31.955    0.218       1 
133290.000    39.9854806889   116.8658016511     20.989      3.928     31.554    0.194       1 
133291.000    39.9855159800   116.8661687732     21.241      3.920     31.169    0.247       1 
133292.000    39.9855511725   116.8665313783     21.466      3.904     30.783    0.173       1 
133293.000    39.9855864079   116.8668896887     21.703      3.914     30.410    0.278       1 
133294.000    39.9856216440   116.8672437484     21.940      3.889     30.072    0.261       1 
133295.000    39.9856567625   116.8675938649     22.191      3.910     29.727    0.261       2 
133296.000    39.9856919320   116.8679401550     22.452      3.920     29.464    0.204       2 
133297.000    39.9857269220   116.8682834800     22.666      3.841     29.180    0.239       2 
133298.000    39.9857612450   116.8686238731     22.905      3.776     28.960    0.231       2 
133299.000    39.9857950940   116.8689618596     23.160      3.739     28.809    0.209       2 
133300.000    39.9858285896   116.8692981756     23.368      3.716     28.662    0.201       2 
133301.000    39.9858620660   116.8696333789     23.608      3.744     28.611    0.267       2 
133302.000    39.9858970127   116.8699684562     23.845      3.951     28.644    0.274       2 
133303.000    39.9859319469   116.8703048962     24.085      3.852     28.832    0.197       2 
133304.000    39.9859666480   116.8706434844     24.310      3.859     29.018    0.190       2 
133305.000    39.9860012833   116.8709848894     24.496      3.857     29.296    0.167       2 
133306.000    39.9860359226   116.8713297085     24.641      3.833     29.588    0.090       2 
133307.000    39.9860701222   116.8716778448     24.796      3.756     29.853    0.366       2 
133308.000    39.9861043960   116.8720289301     24.883      3.821     30.097    0.073       2 
133309.000    39.9861390751   116.8723827873     24.863      3.857     30.335   -0.013       2 
133310.000    39.9861738742   116.8727388413     24.633      3.791     30.455   -0.044       2 
133311.000    39.9862088485   116.8730953398     24.564      3.924     30.431   -0.144       0 
133312.000    39.9862445864   116.8734524007     24.408      4.027     30.579   -0.180       1 
133313.000    39.9862810112   116.8738108373     24.241      4.021     30.628   -0.199       1 
133314.000    39.9863172240   116.8741695678     24.008      4.020     30.681   -0.205       1 
133315.000    39.9863535609   116.8745291661     23.798      4.064     30.742   -0.201       1 
133316.000    39.9863900934   116.8748896958     23.609      3.965     30.860   -0.158       1 
133317.000    39.9864255432   116.8752515392     23.380      3.935     30.902   -0.212       1 
133318.000    39.9864608085   116.8756135711     23.166      3.894     30.969   -0.174       1 
133319.000    39.9864959952   116.8759762388     22.957      3.907     30.934   -0.198       1 
