   GPSTime         Latitude        Longitude      H-Ell      Vel-N      Vel-E    Vel-U       Q  
     (sec)            (Deg)            (Deg)        (m)      (m/s)      (m/s)    (m/s)          
279733.000    40.1896861569   116.2277130341     49.774     17.207     -6.742   -0.224       1 
279734.000    40.1898414920   116.2276338974     49.561     17.296     -6.728   -0.232       1 
279735.000    40.1899975031   116.2275547074     49.307     17.339     -6.767   -0.237       1 
279736.000    40.1901538013   116.2274752689     49.032     17.359     -6.748   -0.311       1 
279737.000    40.1903097723   116.2273968828     48.722     17.271     -6.629   -0.316       1 
279738.000    40.1904655464   116.2273191826     48.365     17.344     -6.642   -0.362       1 
279739.000    40.1906221870   116.2272408367     48.021     17.445     -6.729   -0.348       1 
279740.000    40.1907800421   116.2271608091     47.687     17.655     -6.887   -0.308       1 
279741.000    40.1909403973   116.2270792299     47.339     17.907     -6.980   -0.322       1 
279742.000    40.1911026354   116.2269970214     46.984     18.149     -7.032   -0.356       1 
279743.000    40.1912671770   116.2269136930     46.646     18.362     -7.152   -0.326       1 
279744.000    40.1914335695   116.2268292214     46.362     18.575     -7.240   -0.216       1 
279745.000    40.1916013495   116.2267439522     46.190     18.697     -7.280   -0.098       1 
279746.000    40.1917705556   116.2266579658     46.134     18.859     -7.351   -0.033       1 
279747.000    40.1919408500   116.2265716895     46.154     18.956     -7.342    0.097       1 
279748.000    40.1921118723   116.2264857344     46.248     18.986     -7.296    0.088       1 
279749.000    40.1922828080   116.2263997718     46.338     18.975     -7.368    0.091       1 
279750.000    40.1924537010   116.2263129670     46.414     19.014     -7.434    0.095       1 
279751.000    40.1926254169   116.2262260751     46.506     19.139     -7.378    0.107       1 
279752.000    40.1927980307   116.2261397591     46.603     19.166     -7.303    0.104       1 
279753.000    40.1929700793   116.2260550162     46.698     18.987     -7.109    0.088       1 
279754.000    40.1931396472   116.2259724328     46.806     18.664     -7.004    0.114       1 
279755.000    40.1933068557   116.2258899520     46.893     18.494     -7.062    0.091       1 
279756.000    40.1934732588   116.2258071810     46.994     18.520     -7.036    0.107       1 
279757.000    40.1936406002   116.2257251657     47.083     18.616     -6.976    0.074       1 
279758.000    40.1938081444   116.2256437220     47.159     18.617     -6.950    0.074       1 
279759.000    40.1939756948   116.2255615376     47.239     18.612     -7.044    0.080       1 
279760.000    40.1941432774   116.2254786907     47.337     18.630     -7.077    0.122       1 
279761.000    40.1943118437   116.2253948379     47.437     18.780     -7.175    0.116       1 
279762.000    40.1944816799   116.2253102926     47.555     18.932     -7.235    0.113       1 
279763.000    40.1946528099   116.2252247158     47.653     19.077     -7.325    0.085       1 
279764.000    40.1948255214   116.2251382951     47.743     19.281     -7.396    0.082       1 
279765.000    40.1949999708   116.2250514755     47.842     19.458     -7.386    0.106       1 
279766.000    40.1951762769   116.2249644077     47.925     19.694     -7.460    0.058       1 
279767.000    40.1953545864   116.2248762267     48.008     19.943     -7.547    0.129       1 
279768.000    40.1955356218   116.2247869300     48.186     20.258     -7.645    0.217       1 
279769.000    40.1957197239   116.2246964895     48.451     20.590     -7.777    0.313       1 
279770.000    40.1959063627   116.2246042567     48.822     20.853     -7.910    0.407       1 
279771.000    40.1960952756   116.2245106210     49.283     21.092     -7.992    0.508       1 
279772.000    40.1962861297   116.2244158292     49.846     21.296     -8.099    0.584       1 
279773.000    40.1964788586   116.2243203312     50.406     21.491     -8.132    0.567       1 
279774.000    40.1966733828   116.2242242606     51.002     21.687     -8.205    0.595       1 
279775.000    40.1968692124   116.2241275984     51.595     21.786     -8.281    0.584       1 
279776.000    40.1970659507   116.2240295810     52.173     21.919     -8.373    0.576       1 
279777.000    40.1972642020   116.2239310970     52.763     22.112     -8.379    0.562       1 
279778.000    40.1974639837   116.2238326399     53.338     22.257     -8.401    0.611       1 
279779.000    40.1976648572   116.2237334548     53.942     22.360     -8.474    0.614       1 
279780.000    40.1978666688   116.2236334457     54.536     22.437     -8.541    0.567       1 
279781.000    40.1980692545   116.2235325089     55.055     22.518     -8.635    0.468       1 
279782.000    40.1982725439   116.2234306517     55.484     22.635     -8.666    0.395       1 
279783.000    40.1984770174   116.2233286488     55.828     22.742     -8.654    0.301       1 
279784.000    40.1986822895   116.2232275891     56.099     22.831     -8.545    0.240       1 
279785.000    40.1988884156   116.2231267857     56.312     22.928     -8.628    0.104       1 
279786.000    40.1990955744   116.2230249677     56.392     23.074     -8.744    0.028       1 
279787.000    40.1993041197   116.2229218018     56.390     23.246     -8.849   -0.094       1 
279788.000    40.1995141723   116.2228176511     56.259     23.413     -8.918   -0.003       1 
279789.000    40.1997259824   116.2227128195     56.087     23.608     -8.959   -0.252       1 
279790.000    40.1999396366   116.2226073787     55.826     23.854     -8.945   -0.312       1 
279791.000    40.2001553262   116.2225032739     55.483     23.973     -8.777   -0.382       1 
279792.000    40.2003704509   116.2224009905     55.023     23.777     -8.625   -0.522       1 
279793.000    40.2005836070   116.2222998437     54.529     23.566     -8.662   -0.511       1 
279794.000    40.2007950474   116.2221977307     54.045     23.469     -8.750   -0.492       1 
279795.000    40.2010065620   116.2220951017     53.537     23.543     -8.729   -0.518       1 
279796.000    40.2012193864   116.2219927330     53.087     23.748     -8.701   -0.373       1 
279797.000    40.2014346666   116.2218903020     52.763     24.044     -8.751   -0.229       1 
279798.000    40.2016521442   116.2217870703     52.642     24.238     -8.861   -0.009       1 
279799.000    40.2018709974   116.2216829356     52.703     24.353     -8.886    0.085       1 
279800.000    40.2020901877   116.2215786433     52.845     24.351     -8.875    0.155       1 
279801.000    40.2023100737   116.2214746317     53.000     24.469     -8.829    0.162       1 
279802.000    40.2025308757   116.2213701736     53.148     24.566     -8.961    0.175       1 
279803.000    40.2027524508   116.2212646174     53.307     24.655     -8.993    0.147       1 
279804.000    40.2029750248   116.2211584441     53.473     24.778     -9.049    0.143       1 
279805.000    40.2031988295   116.2210523981     53.630     24.922     -9.032    0.136       1 
279806.000    40.2034237540   116.2209460034     53.778     25.021     -9.068    0.115       1 
279807.000    40.2036485322   116.2208392603     53.919     24.893     -9.095    0.157       1 
279808.000    40.2038720703   116.2207330445     54.052     24.804     -8.991    0.127       1 
279809.000    40.2040948198   116.2206274198     54.184     24.632     -8.940    0.146       1 
279810.000    40.2043161120   116.2205223939     54.290     24.560     -8.923    0.123       1 
279811.000    40.2045372392   116.2204175766     54.393     24.525     -8.933    0.102       1 
279812.000    40.2047584266   116.2203122370     54.485     24.576     -8.994    0.129       1 
279813.000    40.2049804520   116.2202063965     54.609     24.696     -9.029    0.060       1 
279814.000    40.2052034478   116.2201001725     54.698     24.837     -9.062    0.112       1 
279815.000    40.2054277753   116.2199937270     54.815     24.976     -9.105    0.116       1 
279816.000    40.2056532901   116.2198867840     54.933     25.110     -9.151    0.131       1 
279817.000    40.2058800551   116.2197790311     55.041     25.262     -9.215    0.136       1 
279818.000    40.2061083597   116.2196708155     55.149     25.452     -9.221    0.152       1 
279819.000    40.2063383420   116.2195623330     55.254     25.629     -9.248    0.135       1 
279820.000    40.2065698179   116.2194534953     55.351     25.731     -9.264    0.133       1 
279821.000    40.2068023120   116.2193442335     55.462     25.882     -9.360    0.160       1 
279822.000    40.2070358536   116.2192329831     55.646     25.991     -9.537    0.158       1 
279823.000    40.2072704970   116.2191206531     55.932     26.112     -9.583    0.330       1 
279824.000    40.2075061836   116.2190080200     56.310     26.238     -9.609    0.412       1 
279825.000    40.2077425924   116.2188942811     56.792     26.274     -9.743    0.525       1 
279826.000    40.2079792594   116.2187795630     57.387     26.277     -9.774    0.645       1 
279827.000    40.2082160687   116.2186644853     58.034     26.327     -9.781    0.662       1 
279828.000    40.2084530959   116.2185499822     58.778     26.334     -9.710    0.750       1 
279829.000    40.2086907710   116.2184362156     59.509     26.405     -9.632    0.751       1 
279830.000    40.2089282658   116.2183235683     60.240     26.322     -9.547    0.706       1 
279831.000    40.2091648039   116.2182120773     60.971     26.200     -9.492    0.776       1 
279832.000    40.2093998914   116.2181003149     61.701     26.009     -9.551    0.692       1 
279833.000    40.2096334052   116.2179884223     62.425     25.857     -9.510    0.764       1 
279834.000    40.2098654524   116.2178768497     63.138     25.686     -9.517    0.674       1 
279835.000    40.2100957245   116.2177645406     63.798     25.472     -9.673    0.580       1 
279836.000    40.2103240418   116.2176488564     64.233     25.257    -10.048    0.439       1 
279837.000    40.2105499828   116.2175283611     64.542     24.918    -10.441    0.330       1 
279838.000    40.2107728165   116.2174034741     64.713     24.589    -10.810    0.119       1 
279839.000    40.2109925410   116.2172755312     64.786     24.229    -11.032   -0.011       1 
279840.000    40.2112091122   116.2171441341     64.731     23.897    -11.367   -0.138       1 
279841.000    40.2114222203   116.2170091227     64.531     23.460    -11.580   -0.272       1 
279842.000    40.2116316665   116.2168731956     64.236     23.089    -11.584   -0.378       1 
279843.000    40.2118380395   116.2167371931     63.768     22.757    -11.582   -0.473       1 
279844.000    40.2120418402   116.2166014713     63.296     22.503    -11.537   -0.431       1 
279845.000    40.2122431247   116.2164660105     62.859     22.211    -11.498   -0.454       1 
279846.000    40.2124422498   116.2163314412     62.431     21.990    -11.398   -0.406       1 
279847.000    40.2126394352   116.2161984218     62.010     21.799    -11.240   -0.468       1 
279848.000    40.2128348485   116.2160669618     61.588     21.567    -11.177   -0.388       1 
279849.000    40.2130280382   116.2159362534     61.190     21.341    -11.071   -0.383       1 
279850.000    40.2132194623   116.2158072431     60.767     21.159    -10.888   -0.433       1 
279851.000    40.2134092221   116.2156799067     60.361     20.984    -10.806   -0.434       1 
279852.000    40.2135983341   116.2155533889     59.952     21.019    -10.765   -0.378       1 
279853.000    40.2137877633   116.2154267693     59.630     21.061    -10.767   -0.273       1 
279854.000    40.2139778306   116.2153000890     59.400     21.162    -10.823   -0.134       1 
279855.000    40.2141686666   116.2151722212     59.255     21.199    -10.932   -0.067       1 
279856.000    40.2143592893   116.2150437592     59.219     21.124    -10.908    0.012       1 
279857.000    40.2145486757   116.2149154811     59.276     20.965    -10.895    0.083       1 
279858.000    40.2147372424   116.2147878882     59.411     20.941    -10.818    0.189       1 
279859.000    40.2149251055   116.2146618179     59.586     20.727    -10.636    0.163       1 
279860.000    40.2151098892   116.2145377367     59.759     20.294    -10.476    0.191       1 
279861.000    40.2152914703   116.2144153425     59.928     20.067    -10.350    0.153       1 
279862.000    40.2154712863   116.2142941372     60.126     19.917    -10.241    0.161       1 
279863.000    40.2156504031   116.2141744233     60.300     19.861    -10.162    0.137       1 
279864.000    40.2158285953   116.2140553004     60.463     19.736    -10.123    0.162       2 
279865.000    40.2160061975   116.2139359472     60.630     19.734    -10.189    0.127       1 
279866.000    40.2161843982   116.2138161371     60.792     19.859    -10.229    0.148       1 
279867.000    40.2163640511   116.2136960072     60.936     20.024    -10.270    0.130       1 
279868.000    40.2165448704   116.2135745523     61.073     20.120    -10.412    0.104       1 
279869.000    40.2167268779   116.2134519287     61.159     20.299    -10.432    0.080       1 
279870.000    40.2169107260   116.2133288771     61.244     20.519    -10.529    0.073       1 
279871.000    40.2170963788   116.2132054551     61.328     20.689    -10.498    0.074       1 
279872.000    40.2172831949   116.2130814253     61.383     20.788    -10.641    0.063       1 
279873.000    40.2174700246   116.2129564223     61.456     20.636    -10.629    0.062       1 
279874.000    40.2176553593   116.2128311945     61.526     20.592    -10.697    0.074       1 
279875.000    40.2178411163   116.2127052559     61.597     20.597    -10.732    0.050       1 
279876.000    40.2180252348   116.2125797714     61.674     20.261    -10.644    0.083       1 
279877.000    40.2182070495   116.2124555705     61.748     20.239    -10.532    0.078       1 
279878.000    40.2183899964   116.2123319739     61.807     20.331    -10.498    0.076       1 
279879.000    40.2185728794   116.2122094291     61.830     20.269    -10.390    0.013       1 
279880.000    40.2187557934   116.2120876863     61.811     20.384    -10.335   -0.036       1 
279881.000    40.2189399376   116.2119655521     61.752     20.415    -10.441   -0.037       1 
279882.000    40.2191225253   116.2118427157     61.671     20.129    -10.452   -0.070       1 
279883.000    40.2193021404   116.2117202270     61.570     19.776    -10.421   -0.196       1 
279884.000    40.2194787494   116.2115978068     61.376     19.446    -10.418   -0.163       1 
279885.000    40.2196523922   116.2114741771     61.112     19.089    -10.724   -0.303       1 
279886.000    40.2198222116   116.2113452989     60.775     18.659    -11.184   -0.310       1 
279887.000    40.2199887575   116.2112125184     60.491     18.399    -11.367   -0.307       1 
279888.000    40.2201524407   116.2110771576     60.232     17.938    -11.762   -0.242       1 
279889.000    40.2203113405   116.2109363315     60.044     17.367    -12.166   -0.158       1 
279890.000    40.2204659717   116.2107921607     59.904     16.907    -12.422   -0.213       1 
279891.000    40.2206153071   116.2106434438     59.783     16.333    -12.810   -0.136       1 
279892.000    40.2207602335   116.2104917089     59.691     15.876    -13.048   -0.128       0 
279893.000    40.2209007548   116.2103363269     59.615     15.396    -13.416   -0.029       0 
279894.000    40.2210371609   116.2101758823     59.575     14.933    -13.902   -0.110       0 
279895.000    40.2211693887   116.2100103779     59.544     14.503    -14.248    0.057       0 
279896.000    40.2212976935   116.2098411376     59.579     14.021    -14.545    0.040       0 
279897.000    40.2214218401   116.2096683975     59.593     13.536    -14.855    0.026       0 
279898.000    40.2215411091   116.2094921687     59.667     12.942    -15.208    0.079       0 
279899.000    40.2216543141   116.2093109891     59.736     12.284    -15.631    0.077       0 
279900.000    40.2217634236   116.2091246087     59.808     11.990    -16.076    0.088       0 
279901.000    40.2218698563   116.2089333410     59.956     11.671    -16.502    0.172       0 
279902.000    40.2219732305   116.2087369242     60.096     11.316    -16.923    0.190       0 
279903.000    40.2220734004   116.2085360033     60.260     10.938    -17.314    0.176       0 
279904.000    40.2221697548   116.2083305798     60.480     10.464    -17.698    0.254       0 
279905.000    40.2222617375   116.2081207051     60.722      9.970    -18.065    0.248       0 
279906.000    40.2223485757   116.2079063367     60.984      9.402    -18.461    0.228       0 
279907.000    40.2224308550   116.2076878539     61.282      8.938    -18.759    0.310       1 
279908.000    40.2225087573   116.2074651624     61.615      8.377    -19.194    0.320       1 
279909.000    40.2225815635   116.2072371522     61.980      7.871    -19.608    0.431       1 
279910.000    40.2226513950   116.2070048065     62.376      7.678    -19.932    0.425       1 
279911.000    40.2227195369   116.2067685559     62.831      7.424    -20.281    0.443       1 
279912.000    40.2227843201   116.2065279787     63.238      6.989    -20.640    0.424       1 
279913.000    40.2228451646   116.2062837089     63.671      6.601    -20.917    0.414       1 
279914.000    40.2229033120   116.2060361898     64.108      6.334    -21.210    0.450       1 
279915.000    40.2229589290   116.2057855337     64.547      6.058    -21.475    0.427       1 
279916.000    40.2230119467   116.2055321594     64.963      5.754    -21.685    0.419       1 
279917.000    40.2230622417   116.2052763997     65.351      5.456    -21.898    0.373       1 
279918.000    40.2231099886   116.2050184273     65.701      5.185    -22.015    0.314       1 
279919.000    40.2231559990   116.2047588751     66.020      5.030    -22.185    0.271       1 
279920.000    40.2232004120   116.2044973587     66.284      4.805    -22.366    0.237       1 
279921.000    40.2232424699   116.2042335612     66.502      4.533    -22.544    0.192       1 
279922.000    40.2232816870   116.2039675540     66.685      4.205    -22.735    0.132       1 
279923.000    40.2233180951   116.2036997111     66.801      3.923    -22.894    0.099       1 
279924.000    40.2233519978   116.2034301382     66.869      3.651    -23.004    0.078       1 
279925.000    40.2233833472   116.2031599296     66.900      3.333    -22.994   -0.015       1 
279926.000    40.2234116874   116.2028892974     66.872      3.007    -23.109   -0.026       1 
279927.000    40.2234376864   116.2026165425     66.810      2.770    -23.324   -0.111       1 
279928.000    40.2234613161   116.2023416374     66.684      2.510    -23.496   -0.140       1 
279929.000    40.2234824479   116.2020644173     66.519      2.212    -23.717   -0.192       1 
279930.000    40.2235009212   116.2017843998     66.281      1.937    -23.962   -0.296       0 
279931.000    40.2235170011   116.2015007941     65.990      1.651    -24.304   -0.268       0 
279932.000    40.2235302261   116.2012135099     65.681      1.312    -24.629   -0.339       0 
279933.000    40.2235403876   116.2009233798     65.337      0.989    -24.690   -0.395       0 
279934.000    40.2235478915   116.2006332459     64.900      0.694    -24.721   -0.465       0 
279935.000    40.2235514726   116.2003409222     64.409      0.147    -25.066   -0.476       0 
279936.000    40.2235506473   116.2000446066     63.912     -0.278    -25.387   -0.478       0 
279937.000    40.2235470128   116.1997444090     63.392     -0.493    -25.707   -0.505       0 
279938.000    40.2235435293   116.1994407473     62.914     -0.220    -25.939   -0.489       0 
