GPSTime         Latitude        Longitude      H-Ell      Vel-N      Vel-E    Vel-U       Q  
(sec)            (Deg)            (Deg)        (m)      (m/s)      (m/s)    (m/s)          
279733.000    40.1896809936   116.2277133654     50.076     17.212     -6.747   -0.218       1 
279734.000    40.1898363313   116.2276342004     49.865     17.296     -6.719   -0.226       1 
279735.000    40.1899923479   116.2275550215     49.612     17.340     -6.777   -0.241       1 
279736.000    40.1901486553   116.2274755609     49.339     17.358     -6.745   -0.312       1 
279737.000    40.1903046273   116.2273971448     49.029     17.267     -6.631   -0.327       1 
279738.000    40.1904604064   116.2273194372     48.674     17.341     -6.635   -0.362       1 
279739.000    40.1906170429   116.2272411144     48.328     17.452     -6.737   -0.341       1 
279740.000    40.1907748908   116.2271611139     47.993     17.654     -6.889   -0.314       1 
279741.000    40.1909352494   116.2270795300     47.645     17.906     -6.986   -0.330       1 
279742.000    40.1910974879   116.2269973055     47.291     18.151     -7.037   -0.357       1 
279743.000    40.1912620272   116.2269139897     46.952     18.359     -7.149   -0.333       1 
279744.000    40.1914284034   116.2268295255     46.665     18.578     -7.246   -0.215       1 
279745.000    40.1915961695   116.2267442652     46.489     18.696     -7.290   -0.107       1 
279746.000    40.1917653671   116.2266582842     46.432     18.858     -7.351   -0.034       1 
279747.000    40.1919356431   116.2265719911     46.448     18.953     -7.348    0.086       1 
279748.000    40.1921066661   116.2264860170     46.542     18.984     -7.301    0.079       1 
279749.000    40.1922776033   116.2264000933     46.632     18.976     -7.363    0.097       1 
279750.000    40.1924484956   116.2263132989     46.708     19.012     -7.427    0.098       1 
279751.000    40.1926202097   116.2262263867     46.800     19.139     -7.378    0.108       1 
279752.000    40.1927928219   116.2261400259     46.896     19.163     -7.305    0.095       1 
279753.000    40.1929648745   116.2260552363     46.993     18.983     -7.113    0.076       1 
279754.000    40.1931344401   116.2259726660     47.100     18.661     -7.005    0.107       1 
279755.000    40.1933016508   116.2258902282     47.187     18.497     -7.061    0.098       1 
279756.000    40.1934680445   116.2258074351     47.286     18.509     -7.021    0.095       1 
279757.000    40.1936353894   116.2257253790     47.376     18.610     -6.962    0.073       1 
279758.000    40.1938029348   116.2256439492     47.453     18.622     -6.946    0.086       1 
279759.000    40.1939704867   116.2255617880     47.532     18.607     -7.024    0.084       1 
279760.000    40.1941380650   116.2254789512     47.630     18.624     -7.079    0.108       1 
279761.000    40.1943066283   116.2253950964     47.729     18.776     -7.170    0.112       1 
279762.000    40.1944764659   116.2253105771     47.847     18.937     -7.237    0.122       1 
279763.000    40.1946476028   116.2252250048     47.947     19.069     -7.313    0.075       1 
279764.000    40.1948203139   116.2251385867     48.037     19.281     -7.394    0.084       1 
279765.000    40.1949947571   116.2250517284     48.135     19.457     -7.389    0.101       1 
279766.000    40.1951710702   116.2249646739     48.219     19.700     -7.460    0.071       1 
279767.000    40.1953493699   116.2248764907     48.300     19.944     -7.545    0.132       1 
279768.000    40.1955303996   116.2247871918     48.476     20.259     -7.662    0.205       1 
279769.000    40.1957144919   116.2246967606     48.740     20.587     -7.776    0.307       1 
279770.000    40.1959011201   116.2246045447     49.108     20.854     -7.915    0.406       1 
279771.000    40.1960900223   116.2245109250     49.567     21.098     -7.999    0.516       1 
279772.000    40.1962808661   116.2244161293     50.127     21.300     -8.100    0.593       1 
279773.000    40.1964735998   116.2243206177     50.688     21.491     -8.143    0.559       1 
279774.000    40.1966681197   116.2242245490     51.284     21.693     -8.212    0.602       1 
279775.000    40.1968639548   116.2241279009     51.877     21.787     -8.291    0.578       1 
279776.000    40.1970606955   116.2240299049     52.456     21.921     -8.376    0.579       1 
279777.000    40.1972589459   116.2239313929     53.045     22.116     -8.374    0.574       1 
279778.000    40.1974587239   116.2238329300     53.620     22.254     -8.397    0.608       1 
279779.000    40.1976595946   116.2237337542     54.223     22.361     -8.473    0.617       1 
279780.000    40.1978614148   116.2236337495     54.820     22.437     -8.551    0.559       1 
279781.000    40.1980640130   116.2235328271     55.341     22.522     -8.644    0.469       1 
279782.000    40.1982673054   116.2234309661     55.771     22.637     -8.665    0.401       1 
279783.000    40.1984717889   116.2233289259     56.117     22.742     -8.652    0.302       1 
279784.000    40.1986770665   116.2232278395     56.389     22.839     -8.562    0.245       1 
279785.000    40.1988832095   116.2231270361     56.606     22.927     -8.630    0.100       1 
279786.000    40.1990903768   116.2230252325     56.688     23.074     -8.747    0.025       1 
279787.000    40.1992989301   116.2229220614     56.688     23.247     -8.837   -0.083       1 
279788.000    40.1995089775   116.2228179129     56.555     23.412     -8.923   -0.011       1 
279789.000    40.1997208117   116.2227130689     56.389     23.603     -8.957   -0.260       1 
279790.000    40.1999344683   116.2226076016     56.128     23.857     -8.942   -0.304       1 
279791.000    40.2001501678   116.2225034299     55.788     23.974     -8.781   -0.382       1 
279792.000    40.2003653105   116.2224011282     55.331     23.787     -8.639   -0.511       1 
279793.000    40.2005784699   116.2223000113     54.838     23.569     -8.653   -0.498       1 
279794.000    40.2007899083   116.2221979432     54.354     23.474     -8.743   -0.477       1 
279795.000    40.2010014230   116.2220952951     53.845     23.545     -8.726   -0.513       1 
279796.000    40.2012142275   116.2219929021     53.392     23.751     -8.711   -0.375       1 
279797.000    40.2014294942   116.2218904660     53.065     24.033     -8.735   -0.242       1 
279798.000    40.2016469516   116.2217872589     52.939     24.236     -8.867   -0.020       1 
279799.000    40.2018657931   116.2216831219     52.998     24.359     -8.886    0.096       1 
279800.000    40.2020849762   116.2215788257     53.138     24.349     -8.881    0.145       1 
279801.000    40.2023048607   116.2214748014     53.293     24.468     -8.828    0.159       1 
279802.000    40.2025256620   116.2213703612     53.441     24.561     -8.958    0.168       1 
279803.000    40.2027472398   116.2212648143     53.601     24.658     -8.998    0.150       1 
279804.000    40.2029698130   116.2211586277     53.766     24.778     -9.052    0.141       1 
279805.000    40.2031936209   116.2210525807     53.924     24.927     -9.039    0.141       1 
279806.000    40.2034185483   116.2209461855     54.072     25.027     -9.068    0.128       1 
279807.000    40.2036433263   116.2208394613     54.214     24.890     -9.088    0.157       1 
279808.000    40.2038668617   116.2207332191     54.346     24.812     -8.997    0.139       1 
279809.000    40.2040896116   116.2206276035     54.478     24.640     -8.955    0.152       1 
279810.000    40.2043109037   116.2205225708     54.584     24.557     -8.919    0.122       1 
279811.000    40.2045320345   116.2204177525     54.688     24.520     -8.931    0.092       1 
279812.000    40.2047532187   116.2203124248     54.780     24.570     -9.005    0.107       1 
279813.000    40.2049752454   116.2202065715     54.904     24.695     -9.031    0.057       1 
279814.000    40.2051982407   116.2201003515     54.993     24.836     -9.065    0.109       1 
279815.000    40.2054225670   116.2199939002     55.109     24.979     -9.112    0.118       1 
279816.000    40.2056480779   116.2198869588     55.227     25.114     -9.151    0.139       1 
279817.000    40.2058748418   116.2197792008     55.334     25.261     -9.216    0.132       1 
279818.000    40.2061031453   116.2196709831     55.441     25.454     -9.220    0.158       1 
279819.000    40.2063331286   116.2195624898     55.547     25.624     -9.239    0.133       1 
279820.000    40.2065646077   116.2194536465     55.645     25.729     -9.276    0.118       1 
279821.000    40.2067970951   116.2193443944     55.754     25.879     -9.352    0.161       1 
279822.000    40.2070306389   116.2192331723     55.939     25.991     -9.536    0.160       1 
279823.000    40.2072652682   116.2191208495     56.222     26.113     -9.591    0.325       1 
279824.000    40.2075009464   116.2190082242     56.598     26.238     -9.592    0.426       1 
279825.000    40.2077373474   116.2188945132     57.078     26.273     -9.740    0.526       1 
279826.000    40.2079740024   116.2187798067     57.670     26.276     -9.773    0.643       1 
279827.000    40.2082108100   116.2186647265     58.317     26.327     -9.767    0.673       1 
279828.000    40.2084478325   116.2185502123     59.060     26.332     -9.712    0.745       1 
279829.000    40.2086855066   116.2184364304     59.790     26.410     -9.640    0.755       1 
279830.000    40.2089230035   116.2183237397     60.522     26.321     -9.547    0.704       1 
279831.000    40.2091595355   116.2182122636     61.252     26.197     -9.487    0.774       1 
279832.000    40.2093946336   116.2181005306     61.984     26.004     -9.542    0.687       1 
279833.000    40.2096281362   116.2179886309     62.705     25.857     -9.506    0.767       1 
279834.000    40.2098601824   116.2178770293     63.418     25.680     -9.496    0.675       1 
279835.000    40.2100904621   116.2177647714     64.080     25.469     -9.658    0.586       1 
279836.000    40.2103187857   116.2176491595     64.516     25.258    -10.038    0.448       1 
279837.000    40.2105447454   116.2175287957     64.828     24.921    -10.435    0.340       1 
279838.000    40.2107676051   116.2174040039     65.004     24.590    -10.810    0.122       1 
279839.000    40.2109873443   116.2172761372     65.079     24.224    -11.022   -0.014       1 
279840.000    40.2112039368   116.2171448602     65.026     23.900    -11.353   -0.122       1 
279841.000    40.2114170812   116.2170099633     64.831     23.461    -11.581   -0.269       1 
279842.000    40.2116265467   116.2168740919     64.539     23.093    -11.576   -0.365       1 
279843.000    40.2118329408   116.2167381358     64.075     22.756    -11.588   -0.480       1 
279844.000    40.2120367450   116.2166024497     63.603     22.502    -11.528   -0.426       1 
279845.000    40.2122380341   116.2164670074     63.166     22.208    -11.506   -0.467       1 
279846.000    40.2124371563   116.2163324430     62.738     21.988    -11.403   -0.414       1 
279847.000    40.2126343441   116.2161994074     62.317     21.802    -11.245   -0.466       1 
279848.000    40.2128297527   116.2160679667     61.894     21.564    -11.176   -0.393       1 
279849.000    40.2130229410   116.2159372618     61.496     21.337    -11.067   -0.387       1 
279850.000    40.2132143689   116.2158082255     61.074     21.157    -10.889   -0.439       1 
279851.000    40.2134041320   116.2156808948     60.669     20.981    -10.802   -0.436       1 
279852.000    40.2135932383   116.2155543870     60.258     21.022    -10.774   -0.378       1 
279853.000    40.2137826503   116.2154277565     59.933     21.064    -10.775   -0.272       1 
279854.000    40.2139727021   116.2153010901     59.700     21.158    -10.816   -0.136       1 
279855.000    40.2141635348   116.2151732469     59.553     21.197    -10.928   -0.069       1 
279856.000    40.2143541479   116.2150447925     59.515     21.136    -10.916    0.030       1 
279857.000    40.2145435272   116.2149165277     59.570     20.969    -10.891    0.095       1 
279858.000    40.2147320815   116.2147889213     59.702     20.943    -10.821    0.191       1 
279859.000    40.2149199476   116.2146628343     59.878     20.731    -10.642    0.167       1 
279860.000    40.2151047338   116.2145387735     60.052     20.293    -10.481    0.185       1 
279861.000    40.2152863170   116.2144163929     60.220     20.069    -10.334    0.170       1 
279862.000    40.2154661322   116.2142951805     60.419     19.921    -10.240    0.170       1 
279863.000    40.2156452520   116.2141754536     60.594     19.859    -10.146    0.144       1 
279864.000    40.2158234465   116.2140563584     60.757     19.747    -10.137    0.175       2 
279865.000    40.2160010506   116.2139370113     60.924     19.738    -10.193    0.132       1 
279866.000    40.2161792451   116.2138171785     61.086     19.853    -10.225    0.138       1 
279867.000    40.2163589010   116.2136970485     61.230     20.019    -10.262    0.126       1 
279868.000    40.2165397273   116.2135756216     61.367     20.121    -10.409    0.107       1 
279869.000    40.2167217342   116.2134529679     61.454     20.301    -10.443    0.076       1 
279870.000    40.2169055775   116.2133299038     61.538     20.515    -10.518    0.072       1 
279871.000    40.2170912250   116.2132064430     61.623     20.691    -10.507    0.071       1 
279872.000    40.2172780503   116.2130824523     61.679     20.789    -10.639    0.065       1 
279873.000    40.2174648847   116.2129574602     61.753     20.630    -10.624    0.054       1 
279874.000    40.2176502169   116.2128322566     61.821     20.589    -10.690    0.072       1 
279875.000    40.2178359788   116.2127063247     61.893     20.595    -10.725    0.051       1 
279876.000    40.2180201016   116.2125808611     61.970     20.256    -10.645    0.071       1 
279877.000    40.2182019074   116.2124566382     62.043     20.243    -10.546    0.076       1 
279878.000    40.2183848531   116.2123330119     62.102     20.330    -10.504    0.070       1 
279879.000    40.2185677390   116.2122104499     62.126     20.270    -10.391    0.014       1 
279880.000    40.2187506520   116.2120886727     62.108     20.394    -10.360   -0.034       1 
279881.000    40.2189348015   116.2119665593     62.049     20.415    -10.437   -0.034       1 
279882.000    40.2191173936   116.2118437477     61.969     20.126    -10.437   -0.066       1 
279883.000    40.2192970163   116.2117212491     61.870     19.777    -10.423   -0.197       1 
279884.000    40.2194736126   116.2115988437     61.673     19.445    -10.424   -0.170       1 
279885.000    40.2196472775   116.2114753104     61.411     19.080    -10.708   -0.309       1 
279886.000    40.2198171093   116.2113465930     61.071     18.655    -11.174   -0.309       1 
279887.000    40.2199836486   116.2112138586     60.785     18.398    -11.352   -0.299       1 
279888.000    40.2201473428   116.2110786493     60.523     17.929    -11.744   -0.247       1 
279889.000    40.2203062592   116.2109380048     60.331     17.351    -12.167   -0.192       1 
279890.000    40.2204609359   116.2107940116     60.193     16.904    -12.411   -0.210       1 
279891.000    40.2206103034   116.2106454893     60.070     16.323    -12.792   -0.144       1 
279892.000    40.2207552757   116.2104939264     59.978     15.872    -13.029   -0.122       0 
279893.000    40.2208958407   116.2103387450     59.899     15.390    -13.399   -0.029       0 
279894.000    40.2210323133   116.2101784909     59.862     14.932    -13.892   -0.105       0 
279895.000    40.2211645846   116.2100131833     59.826     14.501    -14.226    0.070       0 
279896.000    40.2212929569   116.2098441098     59.863     14.010    -14.531    0.027       0 
279897.000    40.2214171749   116.2096715403     59.878     13.528    -14.846    0.015       0 
279898.000    40.2215365223   116.2094955237     59.950     12.931    -15.186    0.072       0 
279899.000    40.2216498295   116.2093145830     60.018     12.282    -15.630    0.073       0 
279900.000    40.2217589959   116.2091283348     60.089     11.979    -16.058    0.078       0 
279901.000    40.2218655128   116.2089372461     60.235     11.662    -16.483    0.167       0 
279902.000    40.2219689611   116.2087409657     60.376     11.303    -16.913    0.171       0 
279903.000    40.2220692126   116.2085401837     60.540     10.919    -17.294    0.151       0 
279904.000    40.2221656546   116.2083349300     60.757     10.449    -17.683    0.235       0 
279905.000    40.2222577348   116.2081252100     60.999      9.957    -18.043    0.237       0 
279906.000    40.2223446963   116.2079110142     61.262      9.396    -18.445    0.228       0 
279907.000    40.2224270600   116.2076926744     61.557      8.937    -18.757    0.309       1 
279908.000    40.2225050938   116.2074701468     61.891      8.363    -19.176    0.304       1 
279909.000    40.2225780210   116.2072423036     62.252      7.869    -19.600    0.434       1 
279910.000    40.2226479155   116.2070100253     62.649      7.677    -19.925    0.427       1 
279911.000    40.2227161402   116.2067738582     63.105      7.422    -20.279    0.440       1 
279912.000    40.2227810500   116.2065333980     63.515      6.990    -20.626    0.437       1 
279913.000    40.2228419873   116.2062892159     63.948      6.602    -20.907    0.423       1 
279914.000    40.2229002095   116.2060417683     64.386      6.331    -21.202    0.450       1 
279915.000    40.2229558994   116.2057911769     64.825      6.057    -21.465    0.432       1 
279916.000    40.2230089848   116.2055378581     65.242      5.747    -21.670    0.417       1 
279917.000    40.2230593471   116.2052821465     65.631      5.451    -21.889    0.368       1 
279918.000    40.2231071465   116.2050242108     65.983      5.188    -22.021    0.317       1 
279919.000    40.2231532017   116.2047646823     66.303      5.020    -22.175    0.256       1 
279920.000    40.2231976677   116.2045032035     66.569      4.804    -22.371    0.231       1 
279921.000    40.2232397833   116.2042394459     66.787      4.533    -22.554    0.184       1 
279922.000    40.2232790688   116.2039734842     66.971      4.202    -22.718    0.138       1 
279923.000    40.2233155472   116.2037056863     67.089      3.923    -22.882    0.107       1 
279924.000    40.2233494984   116.2034361457     67.156      3.651    -22.993    0.085       1 
279925.000    40.2233809144   116.2031659655     67.190      3.331    -22.985   -0.011       1 
279926.000    40.2234093112   116.2028953724     67.162      3.003    -23.108   -0.036       1 
279927.000    40.2234353728   116.2026226449     67.102      2.770    -23.322   -0.110       1 
279928.000    40.2234590566   116.2023477715     66.977      2.509    -23.490   -0.136       1 
279929.000    40.2234802480   116.2020705827     66.812      2.214    -23.721   -0.192       1 
279930.000    40.2234987793   116.2017905875     66.576      1.940    -23.962   -0.290       0 
279931.000    40.2235149216   116.2015070180     66.285      1.644    -24.289   -0.272       0 
279932.000    40.2235282387   116.2012197692     65.979      1.309    -24.615   -0.334       0 
279933.000    40.2235384780   116.2009296623     65.637      0.997    -24.695   -0.381       0 
279934.000    40.2235460619   116.2006395515     65.204      0.697    -24.705   -0.445       0 
279935.000    40.2235497731   116.2003472766     64.714      0.139    -25.055   -0.483       0 
279936.000    40.2235490465   116.2000510014     64.217     -0.276    -25.389   -0.476       0 
279937.000    40.2235454605   116.1997508102     63.699     -0.504    -25.705   -0.528       0 
279938.000    40.2235419145   116.1994471315     63.220     -0.212    -25.955   -0.484       0 
