----------------------------------END OF HEADER--------------------------------------

GPSTime         Latitude        Longitude      H-Ell      Vel-N      Vel-E    Vel-U       Q  
(sec)            (Deg)            (Deg)        (m)      (m/s)      (m/s)    (m/s)          
51961.000    22.7017713302   114.3366773052     40.041     -3.443      5.688    0.034       1 
51962.000    22.7017410998   114.3367352327     40.033     -3.421      6.129   -0.019       1 
51963.000    22.7017090659   114.3367972306     40.028     -3.683      6.589    0.010       1 
51964.000    22.7016734891   114.3368624061     40.039     -4.098      6.916   -0.009       1 
51965.000    22.7016338794   114.3369301424     40.043     -4.551      7.096   -0.023       1 
51966.000    22.7015916594   114.3369990274     39.970     -4.742      7.143   -0.072       1 
51967.000    22.7015485542   114.3370701131     39.925     -4.827      7.473   -0.029       1 
51968.000    22.7015060223   114.3371447535     39.864     -4.679      7.768   -0.068       1 
51969.000    22.7014636168   114.3372229570     39.826     -4.757      8.154   -0.064       1 
51970.000    22.7014209180   114.3373031156     39.785     -4.721      8.263   -0.025       1 
51971.000    22.7013781489   114.3373833004     39.751     -4.757      8.199   -0.013       1 
51972.000    22.7013348181   114.3374630277     39.718     -4.823      8.195   -0.037       1 
51973.000    22.7012911827   114.3375426323     39.663     -4.845      8.176   -0.090       1 
51974.000    22.7012471125   114.3376228480     39.623     -4.854      8.200   -0.041       1 
51975.000    22.7012039485   114.3377026392     39.595     -4.731      8.154   -0.001       1 
51976.000    22.7011622064   114.3377817321     39.577     -4.545      8.123   -0.027       1 
51977.000    22.7011221923   114.3378611525     39.547     -4.378      8.146   -0.025       1 
51978.000    22.7010836370   114.3379406807     39.533     -4.210      8.185   -0.028       1 
51979.000    22.7010457945   114.3380201186     39.505     -4.152      8.114   -0.038       1 
51980.000    22.7010084952   114.3380993741     39.490     -4.121      8.121   -0.037       1 
51981.000    22.7009715797   114.3381781564     39.476     -4.046      8.072    0.007       1 
51982.000    22.7009355155   114.3382554258     39.442     -3.955      7.800   -0.056       1 
51983.000    22.7008999084   114.3383312713     39.402     -3.973      7.877   -0.056       1 
51984.000    22.7008633877   114.3384094353     39.397     -4.096      8.225    0.004       1 
51985.000    22.7008260856   114.3384893775     39.376     -4.098      8.169   -0.041       1 
51986.000    22.7007892699   114.3385685251     39.346     -4.067      8.079   -0.012       1 
51987.000    22.7007526890   114.3386476846     39.331     -4.084      8.189   -0.020       1 
51988.000    22.7007156898   114.3387283493     39.301     -4.137      8.359   -0.073       1 
51989.000    22.7006779394   114.3388104913     39.270     -4.213      8.503   -0.041       1 
51990.000    22.7006395556   114.3388932695     39.234     -4.285      8.549    0.006       1 
51991.000    22.7006009033   114.3389779168     39.213     -4.288      8.854   -0.018       1 
51992.000    22.7005611826   114.3390649557     39.179     -4.528      9.007   -0.057       1 
51993.000    22.7005201400   114.3391525617     39.142     -4.537      8.885   -0.054       1 
51994.000    22.7004793658   114.3392384506     39.117     -4.462      8.697   -0.043       1 
51995.000    22.7004397519   114.3393220005     39.079     -4.313      8.483   -0.043       1 
51996.000    22.7004016114   114.3394039081     39.049     -4.124      8.408   -0.029       1 
51997.000    22.7003636909   114.3394890463     39.059     -4.306      8.950   -0.035       1 
51998.000    22.7003235989   114.3395789198     39.023     -4.569      9.502   -0.087       1 
51999.000    22.7002817957   114.3396711908     38.975     -4.655      9.471   -0.012       1 
52000.000    22.7002390582   114.3397629797     38.942     -4.789      9.456   -0.066       1 
52001.000    22.7001956030   114.3398554410     38.913     -4.806      9.545   -0.014       1 
52002.000    22.7001524328   114.3399480095     38.891     -4.758      9.504   -0.028       1 
52003.000    22.7001097426   114.3400406925     38.854     -4.687      9.515   -0.053       1 
52004.000    22.7000671808   114.3401333916     38.814     -4.702      9.516   -0.039       1 
52005.000    22.7000255201   114.3402256334     38.775     -4.558      9.388   -0.022       1 
52006.000    22.6999848671   114.3403159476     38.763     -4.424      9.142   -0.037       1 
52007.000    22.6999446365   114.3404030989     38.741     -4.432      8.795   -0.003       1 
52008.000    22.6999039437   114.3404865439     38.676     -4.486      8.348   -0.056       1 
52009.000    22.6998669073   114.3405673289     38.659     -3.872      8.084   -0.073       1 
52010.000    22.6998359502   114.3406469136     38.598     -3.261      8.066   -0.044       1 
52011.000    22.6998071238   114.3407243724     38.569     -3.191      7.817   -0.008       1 
52012.000    22.6997776064   114.3407977909     38.542     -3.228      7.343   -0.042       1 
52013.000    22.6997481165   114.3408658995     38.513     -3.196      6.724   -0.017       1 
52014.000    22.6997193346   114.3409289901     38.486     -3.109      6.296   -0.047       1 
52015.000    22.6996916991   114.3409884274     38.461     -2.981      5.942   -0.006       1 
52016.000    22.6996656709   114.3410447349     38.455     -2.790      5.613   -0.012       1 
52017.000    22.6996412580   114.3410979662     38.436     -2.614      5.329   -0.033       1 
52018.000    22.6996188107   114.3411470703     38.413     -2.209      4.521   -0.017       1 
52019.000    22.6996020836   114.3411837693     38.397     -1.740      3.555   -0.021       1 
52020.000    22.6995871990   114.3412165095     38.389     -1.527      3.138    0.004       1 
52021.000    22.6995743132   114.3412450328     38.389     -1.352      2.793    0.017       1 
52022.000    22.6995629472   114.3412702835     38.387     -1.173      2.418   -0.001       1 
52023.000    22.6995537569   114.3412907794     38.383     -0.669      1.421   -0.001       1 
52024.000    22.6995512125   114.3412965078     38.377      0.004     -0.013    0.001       1 
52025.000    22.6995512545   114.3412964179     38.376      0.002     -0.003   -0.000       1 
52026.000    22.6995512579   114.3412964043     38.375      0.001      0.001   -0.004       1 
52027.000    22.6995512637   114.3412963992     38.375      0.003      0.002   -0.004       1 
52028.000    22.6995512621   114.3412963923     38.375     -0.001      0.001    0.001       1 
52029.000    22.6995512601   114.3412963891     38.375     -0.003      0.002    0.006       1 
52030.000    22.6995512593   114.3412963878     38.375      0.001      0.001   -0.001       1 
52031.000    22.6995512599   114.3412963890     38.375      0.000      0.004   -0.001       1 
52032.000    22.6995512606   114.3412963935     38.376     -0.002     -0.000    0.005       1 
52033.000    22.6995511542   114.3412966275     38.375     -0.032      0.055   -0.027       1 
52034.000    22.6995500867   114.3412990040     38.374     -0.289      0.640   -0.005       1 
52035.000    22.6995458983   114.3413083712     38.372     -0.589      1.231    0.005       1 
52036.000    22.6995391992   114.3413233571     38.363     -0.963      1.949   -0.023       1 
52037.000    22.6995289857   114.3413461657     38.344     -1.250      2.601   -0.027       1 
52038.000    22.6995165305   114.3413739574     38.317     -1.568      3.205   -0.029       1 
52039.000    22.6995003251   114.3414100000     38.304     -1.985      4.116    0.000       1 
52040.000    22.6994808337   114.3414520259     38.316     -2.326      4.673   -0.005       1 
52041.000    22.6994575739   114.3415005552     38.322     -2.707      5.247   -0.015       1 
52042.000    22.6994317200   114.3415524904     38.293     -2.974      5.422   -0.101       1 
52043.000    22.6994029599   114.3416081977     38.284     -3.380      6.035   -0.075       1 
52044.000    22.6993707821   114.3416687084     38.323     -3.627      6.528    0.083       1 
52045.000    22.6993366605   114.3417338817     38.308     -3.911      6.976   -0.040       1 
52046.000    22.6993014528   114.3418043836     38.302     -3.928      7.311    0.045       1 
52047.000    22.6992670310   114.3418770796     38.343     -3.844      7.667   -0.026       1 
52048.000    22.6992310287   114.3419543057     38.316     -4.037      8.138   -0.047       1 
52049.000    22.6991937201   114.3420359204     38.291     -4.266      8.606   -0.045       1 
52050.000    22.6991539821   114.3421230408     38.286     -4.533      9.174   -0.017       1 
52051.000    22.6991126988   114.3422130338     38.275     -4.600      9.286   -0.043       1 
52052.000    22.6990705226   114.3423047543     38.276     -4.696      9.523    0.018       1 
52053.000    22.6990276389   114.3423980716     38.295     -4.817      9.740    0.034       1 
52054.000    22.6989833076   114.3424939210     38.314     -4.994      9.924    0.041       1 
52055.000    22.6989380755   114.3425906188     38.333     -4.959      9.923    0.014       1 
52056.000    22.6988961146   114.3426892771     38.347     -4.492     10.171    0.026       1 
52057.000    22.6988571193   114.3427895620     38.378     -4.318     10.460    0.042       1 
52058.000    22.6988172120   114.3428914498     38.416     -4.487     10.414    0.003       1 
52059.000    22.6987754282   114.3429922441     38.443     -4.675     10.305    0.027       1 
52060.000    22.6987320842   114.3430903629     38.492     -4.832      9.921    0.110       1 
52061.000    22.6986881283   114.3431846308     38.583     -4.804      9.502    0.084       1 
52062.000    22.6986450014   114.3432768017     38.668     -4.740      9.450    0.085       1 
52063.000    22.6986023569   114.3433689838     38.769     -4.715      9.501    0.113       1 
52064.000    22.6985597844   114.3434618857     38.897     -4.707      9.557    0.130       1 
52065.000    22.6985172487   114.3435553840     39.077     -4.728      9.656    0.198       1 
52066.000    22.6984736773   114.3436497623     39.257     -4.920      9.820    0.194       1 
52067.000    22.6984284989   114.3437465605     39.497     -5.077     10.044    0.267       1 
52068.000    22.6983821019   114.3438459441     39.758     -5.178     10.298    0.269       1 
52069.000    22.6983358699   114.3439441558     40.047     -5.031      9.974    0.273       1 
52070.000    22.6982904542   114.3440415471     40.337     -5.064     10.126    0.293       1 
52071.000    22.6982440565   114.3441422542     40.632     -5.247     10.579    0.311       1 
52072.000    22.6981957932   114.3442472241     40.931     -5.454     11.018    0.308       1 
52073.000    22.6981454588   114.3443561352     41.248     -5.681     11.365    0.321       1 
52074.000    22.6980952893   114.3444659267     41.564     -5.479     11.018    0.223       1 
52075.000    22.6980460308   114.3445727473     41.860     -5.450     10.904    0.279       1 
52076.000    22.6979969147   114.3446777483     42.085     -5.373     10.625    0.141       1 
52077.000    22.6979484060   114.3447798679     42.197     -5.324     10.325    0.110       1 
52078.000    22.6979019033   114.3448801858     42.241     -5.077     10.349    0.038       1 
52079.000    22.6978557767   114.3449814645     42.204     -5.132     10.484   -0.094       1 
52080.000    22.6978089258   114.3450846325     42.053     -5.217     10.670   -0.227       1 
52081.000    22.6977613525   114.3451891429     41.801     -5.318     10.813   -0.304       1 
52082.000    22.6977128910   114.3452953684     41.509     -5.400     10.954   -0.307       1 
52083.000    22.6976641395   114.3454024770     41.207     -5.409     11.020   -0.326       1 
52084.000    22.6976150154   114.3455096666     40.897     -5.444     10.990   -0.323       1 
52085.000    22.6975657763   114.3456156236     40.570     -5.360     10.691   -0.318       1 
52086.000    22.6975171022   114.3457181498     40.283     -5.394     10.431   -0.272       1 
52087.000    22.6974697210   114.3458180293     39.985     -5.058     10.024   -0.329       1 
52088.000    22.6974264459   114.3459129284     39.687     -4.537      9.415   -0.281       1 
52089.000    22.6973900814   114.3460032163     39.427     -3.748      8.903   -0.246       1 
52090.000    22.6973582953   114.3460855773     39.213     -3.315      8.010   -0.197       1 
52091.000    22.6973298484   114.3461581986     39.010     -2.955      6.906   -0.238       1 
52092.000    22.6973031503   114.3462234308     38.807     -2.915      6.572   -0.166       1 
52093.000    22.6972783973   114.3462850431     38.642     -2.595      6.043   -0.152       1 
52094.000    22.6972564055   114.3463406548     38.498     -2.281      5.385   -0.111       1 
52095.000    22.6972376306   114.3463880378     38.385     -1.820      4.285   -0.083       1 
52096.000    22.6972233690   114.3464239328     38.306     -1.340      3.168   -0.066       1 
52097.000    22.6972132492   114.3464491164     38.254     -0.880      2.008   -0.039       1 
52098.000    22.6972079842   114.3464620819     38.227     -0.365      0.812   -0.030       1 
52099.000    22.6972046855   114.3464702221     38.209     -0.341      0.787   -0.014       1 
52100.000    22.6972026115   114.3464753153     38.198     -0.121      0.264   -0.002       1 
52101.000    22.6972017146   114.3464775186     38.192     -0.105      0.239   -0.002       1 
52102.000    22.6972010660   114.3464790921     38.189     -0.019      0.049   -0.008       1 
52103.000    22.6972010575   114.3464790972     38.190      0.001      0.006    0.005       1 
52104.000    22.6972010607   114.3464790882     38.190      0.001      0.002    0.003       1 
52105.000    22.6972010679   114.3464790833     38.190      0.004      0.003   -0.005       1 
52106.000    22.6972010721   114.3464790799     38.190      0.002      0.003   -0.002       1 
52107.000    22.6972010730   114.3464790787     38.190     -0.003     -0.003    0.005       1 
52108.000    22.6972010680   114.3464790797     38.191      0.000      0.002    0.001       1 
52109.000    22.6972010616   114.3464790853     38.191      0.001      0.002   -0.003       1 
52110.000    22.6972010538   114.3464790877     38.193     -0.004     -0.001    0.010       1 
52111.000    22.6972010505   114.3464790865     38.195     -0.001      0.002    0.004       1 
52112.000    22.6972010471   114.3464790849     38.197      0.002      0.002   -0.001       1 
52113.000    22.6972010441   114.3464790884     38.198     -0.000      0.001    0.000       1 
52114.000    22.6972010409   114.3464790919     38.200     -0.002     -0.000    0.006       1 
52115.000    22.6972010408   114.3464790937     38.201     -0.001      0.002    0.001       1 
52116.000    22.6972010464   114.3464790968     38.200      0.002      0.000   -0.004       1 
52117.000    22.6972010499   114.3464790998     38.198      0.001      0.002   -0.002       1 
52118.000    22.6972010492   114.3464790998     38.197      0.001      0.004    0.000       1 
52119.000    22.6972010492   114.3464790984     38.196     -0.001      0.002    0.004       1 
52120.000    22.6972010478   114.3464790959     38.196      0.002      0.001   -0.004       1 
52121.000    22.6972010432   114.3464790932     38.197      0.001      0.004    0.000       1 
52122.000    22.6972010390   114.3464790917     38.198     -0.001     -0.000    0.003       1 
52123.000    22.6972010348   114.3464790933     38.199      0.002      0.003   -0.003       1 
52124.000    22.6972010317   114.3464790928     38.199     -0.001      0.001    0.002       1 
52125.000    22.6972010269   114.3464790931     38.200     -0.001      0.002    0.005       1 
52126.000    22.6972010234   114.3464790952     38.200      0.000      0.000   -0.002       1 
52127.000    22.6972010237   114.3464790947     38.199      0.002     -0.001   -0.002       1 
52128.000    22.6972010211   114.3464790922     38.199     -0.001      0.003    0.004       1 
52129.000    22.6972010163   114.3464790931     38.198      0.001      0.003   -0.002       1 
52130.000    22.6972010125   114.3464790959     38.197      0.000      0.002   -0.003       1 
52131.000    22.6972010120   114.3464790979     38.196      0.000      0.004    0.004       1 
52132.000    22.6972010151   114.3464791041     38.196      0.001      0.003   -0.001       1 
52133.000    22.6972010120   114.3464791097     38.196     -0.000      0.003    0.001       1 
52134.000    22.6972009988   114.3464791138     38.198     -0.004      0.004    0.004       1 
52135.000    22.6972006069   114.3464800126     38.199     -0.097      0.225    0.003       1 
52136.000    22.6971973607   114.3464877473     38.186     -0.731      1.675   -0.025       1 
52137.000    22.6971873349   114.3465109744     38.145     -1.306      2.844   -0.051       1 
52138.000    22.6971726672   114.3465434821     38.086     -1.822      3.807   -0.058       1 
52139.000    22.6971549619   114.3465808209     38.026     -2.032      3.954   -0.039       1 
52140.000    22.6971344877   114.3466230142     37.971     -2.486      4.812   -0.055       1 
52141.000    22.6971100797   114.3466737126     37.942     -2.905      5.578   -0.024       1 
52142.000    22.6970832899   114.3467322837     37.925     -3.260      6.501   -0.050       1 
52143.000    22.6970540994   114.3467981909     37.942     -3.422      7.082    0.029       1 
52144.000    22.6970213047   114.3468692311     37.965     -3.723      7.456    0.022       1 
52145.000    22.6969873772   114.3469426086     38.024     -3.827      7.696    0.126       1 
52146.000    22.6969522005   114.3470208356     38.150     -4.006      8.407    0.142       1 
52147.000    22.6969172907   114.3471042546     38.300     -3.723      8.517    0.177       1 
52148.000    22.6968853871   114.3471859223     38.486     -3.427      8.196    0.166       1 
52149.000    22.6968557944   114.3472641777     38.692     -3.163      7.894    0.249       1 
52150.000    22.6968285522   114.3473421979     38.912     -3.039      8.099    0.220       1 
52151.000    22.6968013921   114.3474232153     39.133     -3.002      8.494    0.165       1 
52152.000    22.6967751130   114.3475084665     39.347     -2.904      8.984    0.201       1 
52153.000    22.6967486888   114.3475978668     39.585     -2.972      9.409    0.259       1 
52154.000    22.6967219222   114.3476909439     39.829     -2.942      9.588    0.230       1 
52155.000    22.6966959341   114.3477850770     40.079     -2.888      9.730    0.189       1 
52156.000    22.6966700028   114.3478810065     40.327     -2.883      9.990    0.266       1 
52157.000    22.6966442756   114.3479794670     40.603     -2.827     10.240    0.276       1 
52158.000    22.6966186020   114.3480803654     40.869     -2.862     10.447    0.228       1 
52159.000    22.6965938123   114.3481830948     41.137     -2.692     10.501    0.307       1 
52160.000    22.6965711367   114.3482840804     41.422     -2.417     10.249    0.262       1 
52161.000    22.6965495638   114.3483846116     41.683     -2.437     10.416    0.289       1 
52162.000    22.6965281985   114.3484871906     41.968     -2.355     10.697    0.255       1 
52163.000    22.6965071848   114.3485920248     42.246     -2.342     10.725    0.256       1 
52164.000    22.6964861729   114.3486974433     42.501     -2.338     10.934    0.234       1 
52165.000    22.6964649397   114.3488051435     42.734     -2.334     11.224    0.224       1 
52166.000    22.6964442856   114.3489157588     42.965     -2.262     11.479    0.243       1 
52167.000    22.6964238727   114.3490295799     43.194     -2.316     11.855    0.232       1 
