----------------------------------END OF HEADER--------------------------------------

GPSTime         Latitude        Longitude      H-Ell      Vel-N      Vel-E    Vel-U       Q  
(sec)            (Deg)            (Deg)        (m)      (m/s)      (m/s)    (m/s)          
51961.000    22.7017721746   114.3366755711     40.169     -3.444      5.701    0.033       1 
51962.000    22.7017418991   114.3367334716     40.161     -3.420      6.133   -0.017       1 
51963.000    22.7017098800   114.3367954736     40.155     -3.684      6.583    0.008       1 
51964.000    22.7016743532   114.3368606819     40.167     -4.098      6.912   -0.009       1 
51965.000    22.7016347926   114.3369284556     40.172     -4.551      7.089   -0.023       1 
51966.000    22.7015925843   114.3369973535     40.099     -4.740      7.148   -0.069       1 
51967.000    22.7015494587   114.3370684115     40.053     -4.825      7.477   -0.026       1 
51968.000    22.7015068679   114.3371430287     39.994     -4.680      7.765   -0.070       1 
51969.000    22.7014644446   114.3372212203     39.955     -4.755      8.156   -0.061       1 
51970.000    22.7014217360   114.3373013710     39.914     -4.720      8.268   -0.025       1 
51971.000    22.7013789835   114.3373815611     39.880     -4.757      8.197   -0.015       1 
51972.000    22.7013356607   114.3374612989     39.847     -4.826      8.194   -0.042       1 
51973.000    22.7012920315   114.3375409050     39.792     -4.844      8.166   -0.088       1 
51974.000    22.7012479544   114.3376211118     39.751     -4.854      8.200   -0.041       1 
51975.000    22.7012047749   114.3377008955     39.723     -4.732      8.158   -0.002       1 
51976.000    22.7011630109   114.3377799768     39.705     -4.543      8.129   -0.023       1 
51977.000    22.7011229677   114.3378593834     39.675     -4.382      8.147   -0.030       1 
51978.000    22.7010843954   114.3379389003     39.661     -4.208      8.179   -0.025       1 
51979.000    22.7010465380   114.3380183353     39.634     -4.151      8.112   -0.036       1 
51980.000    22.7010092367   114.3380975884     39.619     -4.119      8.117   -0.035       1 
51981.000    22.7009723170   114.3381763688     39.604     -4.048      8.074    0.005       1 
51982.000    22.7009362565   114.3382536487     39.572     -3.956      7.800   -0.058       1 
51983.000    22.7009006531   114.3383294853     39.530     -3.972      7.873   -0.055       1 
51984.000    22.7008641296   114.3384076437     39.525     -4.093      8.227    0.008       1 
51985.000    22.7008268195   114.3384875889     39.504     -4.097      8.168   -0.040       1 
51986.000    22.7007900025   114.3385667363     39.475     -4.066      8.084   -0.012       1 
51987.000    22.7007534236   114.3386458952     39.459     -4.086      8.189   -0.023       1 
51988.000    22.7007164206   114.3387265599     39.430     -4.138      8.354   -0.074       1 
51989.000    22.7006786686   114.3388087029     39.399     -4.213      8.505   -0.041       1 
51990.000    22.7006402912   114.3388914812     39.362     -4.283      8.555    0.009       1 
51991.000    22.7006016258   114.3389761207     39.341     -4.285      8.854   -0.014       1 
51992.000    22.7005619244   114.3390631719     39.308     -4.531      9.007   -0.063       1 
51993.000    22.7005208926   114.3391507849     39.271     -4.538      8.874   -0.056       1 
51994.000    22.7004801236   114.3392366741     39.246     -4.461      8.700   -0.041       1 
51995.000    22.7004405011   114.3393202235     39.208     -4.313      8.490   -0.043       1 
51996.000    22.7004023327   114.3394021046     39.177     -4.130      8.386   -0.038       1 
51997.000    22.7003644023   114.3394872432     39.187     -4.308      8.951   -0.038       1 
51998.000    22.7003243090   114.3395771229     39.152     -4.566      9.507   -0.082       1 
51999.000    22.7002825240   114.3396693976     39.103     -4.652      9.476   -0.008       1 
52000.000    22.7002397934   114.3397611915     39.070     -4.791      9.452   -0.069       1 
52001.000    22.7001963407   114.3398536516     39.041     -4.805      9.551   -0.014       1 
52002.000    22.7001531607   114.3399462139     39.019     -4.758      9.497   -0.029       1 
52003.000    22.7001104683   114.3400389046     38.983     -4.686      9.511   -0.052       1 
52004.000    22.7000679028   114.3401315982     38.943     -4.701      9.515   -0.038       1 
52005.000    22.7000262335   114.3402238327     38.903     -4.556      9.386   -0.020       1 
52006.000    22.6999855839   114.3403141520     38.892     -4.423      9.140   -0.037       1 
52007.000    22.6999453919   114.3404013209     38.870     -4.429      8.788    0.001       1 
52008.000    22.6999047124   114.3404847779     38.805     -4.488      8.356   -0.059       1 
52009.000    22.6998675882   114.3405655203     38.788     -3.870      8.100   -0.069       1 
52010.000    22.6998365381   114.3406450690     38.728     -3.262      8.070   -0.045       1 
52011.000    22.6998077323   114.3407225320     38.698     -3.192      7.816   -0.009       1 
52012.000    22.6997782620   114.3407959724     38.671     -3.228      7.336   -0.042       1 
52013.000    22.6997488172   114.3408640971     38.641     -3.198      6.720   -0.020       1 
52014.000    22.6997200614   114.3409272032     38.615     -3.108      6.292   -0.046       1 
52015.000    22.6996924341   114.3409866379     38.590     -2.980      5.944   -0.005       1 
52016.000    22.6996664028   114.3410429453     38.583     -2.792      5.612   -0.014       1 
52017.000    22.6996419812   114.3410961776     38.565     -2.614      5.329   -0.033       1 
52018.000    22.6996195251   114.3411452839     38.544     -2.204      4.521   -0.010       1 
52019.000    22.6996027990   114.3411819755     38.526     -1.740      3.557   -0.022       1 
52020.000    22.6995879168   114.3412147140     38.518     -1.527      3.139    0.004       1 
52021.000    22.6995750299   114.3412432338     38.517     -1.352      2.795    0.017       1 
52022.000    22.6995636616   114.3412684859     38.516     -1.172      2.419   -0.001       1 
52023.000    22.6995544653   114.3412889928     38.514     -0.666      1.421    0.004       1 
52024.000    22.6995519232   114.3412947163     38.506      0.003     -0.013   -0.000       1 
52025.000    22.6995519671   114.3412946221     38.505      0.002     -0.005   -0.001       1 
52026.000    22.6995519703   114.3412946084     38.504      0.001      0.001   -0.003       1 
52027.000    22.6995519763   114.3412946034     38.504      0.003      0.002   -0.004       1 
52028.000    22.6995519746   114.3412945964     38.503     -0.001      0.002    0.001       1 
52029.000    22.6995519726   114.3412945932     38.503     -0.003      0.001    0.005       1 
52030.000    22.6995519717   114.3412945919     38.504      0.001      0.001   -0.000       1 
52031.000    22.6995519724   114.3412945931     38.504      0.001      0.004   -0.001       1 
52032.000    22.6995519731   114.3412945975     38.505     -0.003     -0.001    0.004       1 
52033.000    22.6995518667   114.3412948303     38.504     -0.032      0.050   -0.027       1 
52034.000    22.6995508013   114.3412972015     38.501     -0.288      0.636   -0.004       1 
52035.000    22.6995466125   114.3413065728     38.500     -0.589      1.232    0.005       1 
52036.000    22.6995399154   114.3413215597     38.492     -0.964      1.950   -0.023       1 
52037.000    22.6995297018   114.3413443746     38.473     -1.248      2.601   -0.024       1 
52038.000    22.6995172514   114.3413721623     38.446     -1.570      3.204   -0.031       1 
52039.000    22.6995010518   114.3414081992     38.431     -1.985      4.112    0.000       1 
52040.000    22.6994815885   114.3414502373     38.443     -2.324      4.664   -0.002       1 
52041.000    22.6994583499   114.3414987826     38.450     -2.705      5.248   -0.011       1 
52042.000    22.6994325110   114.3415507437     38.423     -2.974      5.416   -0.100       1 
52043.000    22.6994037867   114.3416064488     38.411     -3.381      6.028   -0.076       1 
52044.000    22.6993716172   114.3416669592     38.450     -3.619      6.530    0.094       1 
52045.000    22.6993374821   114.3417321414     38.437     -3.908      6.975   -0.037       1 
52046.000    22.6993022274   114.3418026042     38.429     -3.936      7.322    0.032       1 
52047.000    22.6992677714   114.3418752913     38.471     -3.839      7.651   -0.018       1 
52048.000    22.6992317513   114.3419525094     38.444     -4.038      8.136   -0.049       1 
52049.000    22.6991944452   114.3420341240     38.419     -4.268      8.604   -0.048       1 
52050.000    22.6991547068   114.3421212402     38.413     -4.534      9.169   -0.019       1 
52051.000    22.6991134265   114.3422112375     38.402     -4.602      9.279   -0.046       1 
52052.000    22.6990712506   114.3423029575     38.404     -4.696      9.525    0.019       1 
52053.000    22.6990283686   114.3423962716     38.422     -4.818      9.743    0.032       1 
52054.000    22.6989840459   114.3424921286     38.442     -4.997      9.924    0.036       1 
52055.000    22.6989387912   114.3425888154     38.461     -4.960      9.927    0.013       1 
52056.000    22.6988967550   114.3426874412     38.474     -4.493     10.185    0.023       1 
52057.000    22.6988577321   114.3427877131     38.505     -4.316     10.456    0.045       1 
52058.000    22.6988178553   114.3428896172     38.544     -4.487     10.410    0.003       1 
52059.000    22.6987761075   114.3429904221     38.570     -4.671     10.308    0.034       1 
52060.000    22.6987328055   114.3430885511     38.617     -4.836      9.917    0.104       1 
52061.000    22.6986888762   114.3431828339     38.709     -4.797      9.496    0.096       1 
52062.000    22.6986457435   114.3432750010     38.794     -4.741      9.455    0.084       1 
52063.000    22.6986030922   114.3433671781     38.895     -4.715      9.500    0.112       1 
52064.000    22.6985605138   114.3434600707     39.022     -4.706      9.550    0.132       1 
52065.000    22.6985179861   114.3435535693     39.201     -4.728      9.658    0.198       1 
52066.000    22.6984744265   114.3436479524     39.381     -4.921      9.821    0.192       1 
52067.000    22.6984292550   114.3437447423     39.620     -5.075     10.044    0.270       1 
52068.000    22.6983828571   114.3438441313     39.881     -5.177     10.303    0.271       1 
52069.000    22.6983366297   114.3439423398     40.170     -5.028      9.967    0.278       1 
52070.000    22.6982912035   114.3440397243     40.459     -5.064     10.122    0.293       1 
52071.000    22.6982447959   114.3441404269     40.754     -5.247     10.586    0.312       1 
52072.000    22.6981965376   114.3442453988     41.053     -5.456     11.014    0.305       1 
52073.000    22.6981462067   114.3443543128     41.370     -5.679     11.372    0.323       1 
52074.000    22.6980960332   114.3444641060     41.687     -5.482     11.005    0.219       1 
52075.000    22.6980467839   114.3445709327     41.983     -5.449     10.901    0.281       1 
52076.000    22.6979976704   114.3446759475     42.210     -5.372     10.618    0.142       1 
52077.000    22.6979491649   114.3447780774     42.323     -5.322     10.331    0.111       1 
52078.000    22.6979026325   114.3448783897     42.369     -5.076     10.357    0.039       1 
52079.000    22.6978564940   114.3449796741     42.333     -5.132     10.481   -0.094       1 
52080.000    22.6978096405   114.3450828551     42.184     -5.216     10.671   -0.224       1 
52081.000    22.6977620685   114.3451873727     41.933     -5.320     10.804   -0.307       1 
52082.000    22.6977136025   114.3452936000     41.642     -5.403     10.955   -0.312       1 
52083.000    22.6976648542   114.3454007130     41.340     -5.408     11.017   -0.323       1 
52084.000    22.6976157386   114.3455079071     41.031     -5.443     10.991   -0.322       1 
52085.000    22.6975665069   114.3456138728     40.704     -5.359     10.691   -0.317       1 
52086.000    22.6975178519   114.3457164016     40.416     -5.397     10.424   -0.275       1 
52087.000    22.6974704484   114.3458162799     40.119     -5.056     10.022   -0.325       1 
52088.000    22.6974271225   114.3459111506     39.821     -4.539      9.427   -0.284       1 
52089.000    22.6973906926   114.3460014121     39.561     -3.746      8.906   -0.243       1 
52090.000    22.6973588932   114.3460837660     39.346     -3.316      8.012   -0.199       1 
52091.000    22.6973304669   114.3461564032     39.145     -2.954      6.893   -0.237       1 
52092.000    22.6973037798   114.3462216317     38.941     -2.914      6.579   -0.164       1 
52093.000    22.6972790128   114.3462832375     38.776     -2.594      6.045   -0.150       1 
52094.000    22.6972570177   114.3463388450     38.631     -2.280      5.387   -0.110       1 
52095.000    22.6972382418   114.3463862308     38.518     -1.819      4.285   -0.082       1 
52096.000    22.6972239847   114.3464221194     38.439     -1.339      3.168   -0.064       1 
52097.000    22.6972138771   114.3464473111     38.387     -0.880      2.008   -0.039       1 
52098.000    22.6972086192   114.3464602750     38.359     -0.368      0.811   -0.035       1 
52099.000    22.6972053238   114.3464684149     38.341     -0.341      0.785   -0.014       1 
52100.000    22.6972032517   114.3464735088     38.330     -0.122      0.263   -0.003       1 
52101.000    22.6972023565   114.3464757113     38.324     -0.105      0.239   -0.002       1 
52102.000    22.6972017080   114.3464772856     38.321     -0.018      0.047   -0.007       1 
52103.000    22.6972016994   114.3464772900     38.321      0.001      0.005    0.004       1 
52104.000    22.6972017026   114.3464772811     38.322      0.001      0.002    0.003       1 
52105.000    22.6972017099   114.3464772762     38.322      0.004      0.003   -0.004       1 
52106.000    22.6972017140   114.3464772727     38.322      0.002      0.003   -0.002       1 
52107.000    22.6972017149   114.3464772715     38.322     -0.003     -0.003    0.004       1 
52108.000    22.6972017099   114.3464772725     38.323      0.000      0.002    0.001       1 
52109.000    22.6972017035   114.3464772781     38.323      0.001      0.003   -0.002       1 
52110.000    22.6972016957   114.3464772805     38.325     -0.005     -0.001    0.009       1 
52111.000    22.6972016924   114.3464772793     38.327     -0.001      0.002    0.004       1 
52112.000    22.6972016891   114.3464772777     38.328      0.002      0.001   -0.001       1 
52113.000    22.6972016860   114.3464772812     38.330     -0.000      0.001    0.001       1 
52114.000    22.6972016828   114.3464772847     38.332     -0.002     -0.000    0.005       1 
52115.000    22.6972016827   114.3464772865     38.332     -0.001      0.001    0.000       1 
52116.000    22.6972016884   114.3464772896     38.331      0.002      0.000   -0.004       1 
52117.000    22.6972016918   114.3464772925     38.330      0.001      0.002   -0.002       1 
52118.000    22.6972016911   114.3464772925     38.329      0.000      0.003   -0.000       1 
52119.000    22.6972016911   114.3464772911     38.328     -0.002      0.002    0.004       1 
52120.000    22.6972016898   114.3464772886     38.328      0.002      0.001   -0.003       1 
52121.000    22.6972016852   114.3464772859     38.329      0.001      0.004    0.000       1 
52122.000    22.6972016809   114.3464772844     38.329     -0.001     -0.001    0.002       1 
52123.000    22.6972016767   114.3464772860     38.330      0.003      0.003   -0.003       1 
52124.000    22.6972016735   114.3464772854     38.331     -0.001      0.001    0.002       1 
52125.000    22.6972016687   114.3464772857     38.331     -0.002      0.001    0.004       1 
52126.000    22.6972016652   114.3464772878     38.331      0.001      0.000   -0.002       1 
52127.000    22.6972016655   114.3464772873     38.331      0.002     -0.001   -0.002       1 
52128.000    22.6972016629   114.3464772848     38.330     -0.001      0.002    0.003       1 
52129.000    22.6972016581   114.3464772858     38.329      0.001      0.003   -0.002       1 
52130.000    22.6972016543   114.3464772885     38.329      0.001      0.002   -0.002       1 
52131.000    22.6972016539   114.3464772905     38.328     -0.000      0.003    0.003       1 
52132.000    22.6972016570   114.3464772968     38.328      0.001      0.003   -0.001       1 
52133.000    22.6972016539   114.3464773024     38.328     -0.000      0.003    0.001       1 
52134.000    22.6972016407   114.3464773063     38.330     -0.004      0.003    0.004       1 
52135.000    22.6972012495   114.3464782034     38.330     -0.098      0.226    0.003       1 
52136.000    22.6971980135   114.3464859326     38.316     -0.731      1.673   -0.024       1 
52137.000    22.6971880145   114.3465091731     38.275     -1.308      2.839   -0.053       1 
52138.000    22.6971733836   114.3465416985     38.216     -1.818      3.802   -0.052       1 
52139.000    22.6971556985   114.3465790440     38.156     -2.036      3.951   -0.044       1 
52140.000    22.6971352226   114.3466212253     38.100     -2.488      4.810   -0.058       1 
52141.000    22.6971108097   114.3466719121     38.069     -2.909      5.578   -0.029       1 
52142.000    22.6970839814   114.3467304595     38.051     -3.264      6.535   -0.057       1 
52143.000    22.6970547989   114.3467963818     38.070     -3.427      7.081    0.020       1 
52144.000    22.6970220310   114.3468674250     38.091     -3.722      7.456    0.024       1 
52145.000    22.6969881062   114.3469408003     38.150     -3.830      7.698    0.122       1 
52146.000    22.6969529063   114.3470190024     38.274     -4.003      8.409    0.146       1 
52147.000    22.6969179253   114.3471023971     38.425     -3.724      8.521    0.175       1 
52148.000    22.6968860079   114.3471840552     38.610     -3.428      8.190    0.166       1 
52149.000    22.6968563817   114.3472622888     38.814     -3.164      7.898    0.247       1 
52150.000    22.6968291067   114.3473402952     39.034     -3.041      8.102    0.217       1 
52151.000    22.6968019099   114.3474213021     39.255     -3.000      8.498    0.168       1 
52152.000    22.6967755931   114.3475065440     39.470     -2.904      8.986    0.200       1 
52153.000    22.6967491572   114.3475959361     39.706     -2.972      9.407    0.259       1 
52154.000    22.6967223664   114.3476890072     39.951     -2.946      9.584    0.224       1 
52155.000    22.6966963767   114.3477831464     40.202     -2.888      9.729    0.189       1 
52156.000    22.6966704275   114.3478790626     40.449     -2.882      9.992    0.267       1 
52157.000    22.6966446810   114.3479775215     40.725     -2.824     10.239    0.280       1 
52158.000    22.6966189924   114.3480784230     40.992     -2.865     10.447    0.224       1 
52159.000    22.6965941664   114.3481811398     41.260     -2.693     10.510    0.305       1 
52160.000    22.6965714711   114.3482821241     41.545     -2.412     10.248    0.269       1 
52161.000    22.6965498918   114.3483826467     41.805     -2.444     10.420    0.278       1 
52162.000    22.6965285008   114.3484852205     42.090     -2.355     10.701    0.256       1 
52163.000    22.6965074810   114.3485900545     42.368     -2.348     10.716    0.246       1 
52164.000    22.6964864673   114.3486954795     42.624     -2.338     10.937    0.233       1 
52165.000    22.6964652221   114.3488031822     42.858     -2.331     11.225    0.230       1 
52166.000    22.6964445516   114.3489137949     43.089     -2.262     11.471    0.244       1 
52167.000    22.6964241279   114.3490276132     43.318     -2.316     11.857    0.233       1 
