GPSTime         Latitude        Longitude      H-Ell      Vel-N      Vel-E    Vel-U       Q  
(sec)            (Deg)            (Deg)        (m)      (m/s)      (m/s)    (m/s)          
94490.000    22.7913697346   113.8414253791      3.375      2.802     15.853    0.126       1 
94491.000    22.7913943690   113.8415803604      3.439      2.723     15.537    0.272       1 
94492.000    22.7914189071   113.8417348901      3.498      2.677     15.800    0.078       0 
94493.000    22.7914434831   113.8418887573      3.523      2.746     15.694    0.015       0 
94494.000    22.7914681311   113.8420413905      3.537      2.711     15.706    0.022       1 
94495.000    22.7914923260   113.8421940834      3.537      2.684     15.690   -0.007       1 
94496.000    22.7915170170   113.8423460350      3.506      2.733     15.518   -0.052       1 
94497.000    22.7915411458   113.8424951642      3.482      2.613     15.048   -0.088       1 
94498.000    22.7915638835   113.8426395928      3.434      2.456     14.652   -0.022       1 
94499.000    22.7915862996   113.8427809610      3.377      2.524     14.342   -0.054       1 
94500.000    22.7916092434   113.8429190903      3.324      2.524     14.034   -0.061       1 
94501.000    22.7916315944   113.8430547051      3.288      2.411     13.834    0.003       1 
94502.000    22.7916530118   113.8431884816      3.252      2.421     13.789   -0.038       1 
94503.000    22.7916748237   113.8433245305      3.209      2.400     14.098    0.007       0 
94504.000    22.7916962897   113.8434626482      3.164      2.396     14.240   -0.016       0 
94505.000    22.7917177201   113.8436013433      3.137      2.343     14.185   -0.018       0 
94506.000    22.7917377777   113.8437388343      3.087      2.148     14.108   -0.079       1 
94507.000    22.7917571838   113.8438773824      3.049      2.267     14.422   -0.061       1 
94508.000    22.7917775135   113.8440194843      3.003      2.276     14.783   -0.061       1 
94509.000    22.7917969895   113.8441638603      2.949      2.035     14.927   -0.055       1 
94510.000    22.7918134186   113.8443093318      2.895      1.723     15.053   -0.064       1 
94511.000    22.7918287070   113.8444575975      2.826      1.726     15.421   -0.081       1 
94512.000    22.7918445791   113.8446073467      2.828      1.769     15.249    0.043       1 
94513.000    22.7918601376   113.8447568799      2.876      1.652     15.544    0.109       1 
94514.000    22.7918740344   113.8449096005      2.970      1.534     15.817    0.190       1 
94515.000    22.7918880299   113.8450648743      3.190      1.526     16.059    0.295       1 
94516.000    22.7919007240   113.8452224279      3.478      1.344     16.335    0.337       1 
94517.000    22.7919118272   113.8453831113      3.814      1.166     16.724    0.356       1 
94518.000    22.7919200649   113.8455470639      4.134      0.802     16.982    0.334       1 
94519.000    22.7919261131   113.8457122437      4.453      0.622     16.820    0.324       1 
94520.000    22.7919325047   113.8458740765      4.778      0.736     16.416    0.354       1 
94521.000    22.7919383914   113.8460310685      5.089      0.621     15.805    0.299       1 
94522.000    22.7919433567   113.8461815901      5.394      0.519     15.213    0.320       1 
94523.000    22.7919475707   113.8463276484      5.674      0.420     14.786    0.293       1 
94524.000    22.7919516673   113.8464706243      5.962      0.445     14.570    0.285       0 
94525.000    22.7919545631   113.8466115805      6.244      0.280     14.420    0.281       0 
94526.000    22.7919559138   113.8467521228      6.516      0.101     14.361    0.337       0 
94527.000    22.7919558311   113.8468910319      6.821     -0.044     14.199    0.302       0 
94528.000    22.7919547861   113.8470275435      7.080     -0.141     13.894    0.224       0 
94529.000    22.7919539203   113.8471615800      7.334     -0.068     13.727    0.284       0 
94530.000    22.7919540394   113.8472966400      7.626      0.049     13.999    0.309       0 
94531.000    22.7919551499   113.8474324165      7.851      0.148     13.928    0.293       0 
94532.000    22.7919570616   113.8475671675      8.114      0.224     13.697    0.287       0 
94533.000    22.7919588188   113.8477000612      8.368      0.189     13.626    0.224       0 
94534.000    22.7919599135   113.8478335700      8.625      0.090     13.844    0.227       0 
94535.000    22.7919600800   113.8479701847      8.883     -0.011     14.238    0.274       0 
94536.000    22.7919590139   113.8481106094      9.142     -0.138     14.613    0.279       0 
94537.000    22.7919575678   113.8482529946      9.416     -0.170     14.726    0.310       0 
94538.000    22.7919567572   113.8483960425      9.685     -0.054     14.729    0.313       0 
94539.000    22.7919572248   113.8485398285      9.954      0.163     14.777    0.250       0 
94540.000    22.7919598585   113.8486850700     10.222      0.340     14.920    0.244       0 
94541.000    22.7919635380   113.8488293882     10.540      0.393     14.636    0.254       0 
94542.000    22.7919665586   113.8489709102     10.779      0.291     14.409    0.207       0 
94543.000    22.7919668507   113.8491098539     10.956     -0.092     14.134    0.096       0 
94544.000    22.7919656265   113.8492450495     11.066     -0.110     13.674    0.073       0 
94545.000    22.7919659995   113.8493769277     11.134      0.061     13.374    0.072       0 
94546.000    22.7919671691   113.8495080765     11.125      0.172     13.572   -0.030       0 
94547.000    22.7919686565   113.8496412559     11.060      0.143     13.729   -0.106       1 
94548.000    22.7919694627   113.8497763748     10.929      0.074     13.959   -0.106       1 
94549.000    22.7919704230   113.8499138832     10.718      0.132     14.392   -0.236       1 
94550.000    22.7919710255   113.8500558379     10.457      0.042     14.761   -0.264       1 
94551.000    22.7919718277   113.8502021761     10.113      0.111     15.322   -0.373       1 
94552.000    22.7919730880   113.8503546514      9.710      0.161     15.969   -0.414       1 
94553.000    22.7919745797   113.8505134701      9.259      0.190     16.657   -0.484       1 
94554.000    22.7919759692   113.8506777285      8.801      0.082     16.941   -0.353       1 
94555.000    22.7919769715   113.8508458810      8.354      0.074     17.437   -0.380       1 
94556.000    22.7919775093   113.8510153388      7.881      0.113     17.363   -0.504       1 
94557.000    22.7919789369   113.8511845475      7.423      0.162     17.306   -0.468       1 
94558.000    22.7919801974   113.8513552615      6.933      0.128     17.730   -0.442       1 
94559.000    22.7919811611   113.8515280897      6.440      0.088     17.730   -0.462       1 
94560.000    22.7919820404   113.8517006210      5.994      0.112     17.670   -0.483       1 
94561.000    22.7919831169   113.8518726847      5.516      0.118     17.626   -0.460       1 
94562.000    22.7919843918   113.8520440994      5.063      0.151     17.542   -0.498       1 
94563.000    22.7919857344   113.8522126146      4.608      0.109     16.938   -0.339       1 
94564.000    22.7919866939   113.8523748072      4.264      0.094     16.457   -0.295       1 
94565.000    22.7919872201   113.8525337161      4.004      0.077     16.206   -0.131       1 
94566.000    22.7919882777   113.8526907967      3.852      0.121     16.039   -0.152       1 
94567.000    22.7919888878   113.8528461817      3.757      0.045     15.903   -0.058       1 
94568.000    22.7919888050   113.8530011084      3.708     -0.027     15.898   -0.025       1 
94569.000    22.7919881679   113.8531563292      3.669     -0.068     16.007   -0.056       1 
94570.000    22.7919881950   113.8533129284      3.609     -0.007     16.131   -0.039       1 
94571.000    22.7919891714   113.8534719915      3.568      0.170     16.474   -0.015       1 
94572.000    22.7919915298   113.8536339368      3.525      0.274     16.792   -0.034       1 
94573.000    22.7919937431   113.8537990143      3.466      0.228     17.130   -0.037       1 
94574.000    22.7919958174   113.8539668931      3.418      0.225     17.248   -0.059       1 
94575.000    22.7919976215   113.8541360779      3.365      0.172     17.472   -0.041       1 
94576.000    22.7919984983   113.8543061173      3.309      0.043     17.447   -0.034       1 
94577.000    22.7919982205   113.8544752947      3.257     -0.063     17.249   -0.052       1 
94578.000    22.7919970939   113.8546402627      3.176     -0.152     16.512   -0.054       1 
94579.000    22.7919954499   113.8547963127      3.092     -0.188     15.511   -0.079       1 
94580.000    22.7919922925   113.8549453305      3.045     -0.425     15.132   -0.018       1 
94581.000    22.7919878102   113.8550901906      3.049     -0.471     14.633    0.004       1 
94582.000    22.7919841945   113.8552274012      3.008     -0.390     13.495   -0.035       1 
94583.000    22.7919808487   113.8553556239      2.952     -0.356     12.802   -0.010       1 
94584.000    22.7919783693   113.8554782495      2.902     -0.241     12.322   -0.035       1 
94585.000    22.7919771803   113.8555969346      2.873     -0.065     12.033   -0.058       1 
94586.000    22.7919787845   113.8557148622      2.829      0.270     12.217   -0.068       1 
94587.000    22.7919814223   113.8558340513      2.773      0.289     12.215   -0.060       1 
94588.000    22.7919834469   113.8559521385      2.721      0.207     12.045   -0.054       1 
94589.000    22.7919847640   113.8560658138      2.682      0.109     11.204   -0.031       1 
94590.000    22.7919852924   113.8561707047      2.664      0.031     10.373    0.041       1 
94591.000    22.7919854078   113.8562654154      2.648     -0.001      9.017    0.000       1 
94592.000    22.7919853608   113.8563462488      2.634      0.003      7.544    0.012       1 
94593.000    22.7919853598   113.8564121371      2.625      0.002      6.008   -0.020       1 
94594.000    22.7919852416   113.8564686682      2.624     -0.026      5.490    0.023       1 
94595.000    22.7919853991   113.8565164453      2.630      0.020      4.319    0.013       1 
94596.000    22.7919859258   113.8565519456      2.636      0.034      2.889    0.020       1 
94597.000    22.7919862918   113.8565750606      2.641      0.029      1.764    0.005       1 
94598.000    22.7919863407   113.8565845341      2.643      0.005      0.198    0.007       1 
94599.000    22.7919863422   113.8565845752      2.648     -0.001     -0.001    0.007       1 
94600.000    22.7919863401   113.8565845696      2.650      0.004      0.003   -0.002       1 
94601.000    22.7919863427   113.8565845602      2.651      0.003      0.004   -0.003       1 
94602.000    22.7919863468   113.8565845521      2.652      0.001     -0.001    0.006       1 
94603.000    22.7919863532   113.8565845489      2.652      0.002      0.005    0.003       1 
94604.000    22.7919863570   113.8565845501      2.653      0.000      0.002    0.003       1 
94605.000    22.7919863561   113.8565845561      2.654     -0.001     -0.001    0.003       1 
94606.000    22.7919863523   113.8565845625      2.655     -0.002     -0.001    0.004       1 
94607.000    22.7919863459   113.8565845651      2.656      0.001      0.005    0.005       1 
94608.000    22.7919863436   113.8565845599      2.657      0.001      0.004    0.003       1 
94609.000    22.7919863453   113.8565845525      2.658      0.001     -0.002    0.005       1 
94610.000    22.7919863483   113.8565845426      2.659      0.001      0.000    0.002       1 
94611.000    22.7919863545   113.8565845374      2.659      0.003      0.004   -0.002       1 
94612.000    22.7919863567   113.8565845367      2.660      0.001      0.003    0.001       1 
94613.000    22.7919863489   113.8565845403      2.661     -0.001      0.005    0.008       1 
94614.000    22.7919863425   113.8565845434      2.662     -0.000      0.005    0.004       1 
94615.000    22.7919863413   113.8565845457      2.663      0.001      0.004    0.000       1 
94616.000    22.7919863350   113.8565845502      2.663     -0.002     -0.003    0.005       1 
94617.000    22.7919863350   113.8565845536      2.664     -0.001     -0.002    0.003       1 
94618.000    22.7919863377   113.8565845608      2.664      0.003      0.005   -0.003       1 
94619.000    22.7919863479   113.8565845626      2.664      0.001     -0.001   -0.002       1 
94620.000    22.7919863620   113.8565845617      2.662      0.002      0.001   -0.002       1 
94621.000    22.7919863733   113.8565845584      2.660      0.001      0.001    0.005       1 
94622.000    22.7919863833   113.8565845556      2.657      0.002      0.003   -0.002       1 
94623.000    22.7919863857   113.8565845560      2.654     -0.001     -0.005   -0.005       1 
94624.000    22.7919863879   113.8565848189      2.651      0.009      0.074   -0.025       1 
94625.000    22.7919863825   113.8565877026      2.653      0.005      0.858    0.019       1 
94626.000    22.7919862929   113.8566042235      2.653      0.013      2.222   -0.017       1 
94627.000    22.7919862227   113.8566265500      2.655     -0.009      2.389    0.026       1 
94628.000    22.7919861619   113.8566525052      2.661     -0.000      3.000    0.007       1 
94629.000    22.7919860112   113.8566862848      2.670     -0.016      3.992   -0.019       1 
94630.000    22.7919856914   113.8567307414      2.676     -0.045      5.147    0.019       1 
94631.000    22.7919857140   113.8567846451      2.684      0.020      5.691   -0.009       1 
94632.000    22.7919859980   113.8568425696      2.703      0.014      6.320    0.044       1 
94633.000    22.7919861071   113.8569083441      2.730      0.015      7.189   -0.006       1 
94634.000    22.7919865623   113.8569812882      2.764      0.076      7.598    0.030       1 
94635.000    22.7919868111   113.8570544325      2.788      0.025      7.503   -0.004       1 
94636.000    22.7919867996   113.8571292924      2.762      0.003      7.937   -0.032       1 
94637.000    22.7919868604   113.8572113962      2.762      0.028      8.917    0.053       1 
94638.000    22.7919883237   113.8573011022      2.805      0.183      9.493    0.025       1 
94639.000    22.7919898281   113.8573956165      2.851      0.176      9.802    0.042       1 
94640.000    22.7919918632   113.8574917290      2.887      0.236      9.915    0.065       1 
94641.000    22.7919927908   113.8575886912      2.939      0.051     10.103    0.056       1 
94642.000    22.7919916674   113.8576879485      3.005     -0.186     10.237    0.109       1 
94643.000    22.7919901815   113.8577900399      3.055     -0.127     10.763    0.051       1 
94644.000    22.7919892086   113.8578969530      3.071     -0.122     11.193    0.022       1 
94645.000    22.7919887053   113.8580092571      3.092      0.013     11.624   -0.017       1 
94646.000    22.7919890843   113.8581231676      3.140      0.040     11.884    0.078       1 
94647.000    22.7919897537   113.8582410723      3.186      0.080     12.147    0.036       1 
94648.000    22.7919906351   113.8583606578      3.202      0.110     12.509   -0.031       1 
94649.000    22.7919911410   113.8584851674      3.153      0.028     13.089    0.018       1 
94650.000    22.7919911168   113.8586126523      3.219     -0.018     13.143    0.063       1 
94651.000    22.7919911494   113.8587422872      3.278      0.015     13.534    0.008       1 
94652.000    22.7919914114   113.8588766511      3.293      0.034     14.073    0.037       1 
94653.000    22.7919918535   113.8590161964      3.316      0.072     14.584    0.010       1 
94654.000    22.7919927261   113.8591604735      3.334      0.107     15.067    0.032       1 
94655.000    22.7919938982   113.8593079432      3.336      0.165     15.202    0.008       1 
94656.000    22.7919953244   113.8594554505      3.304      0.154     15.142   -0.190       1 
94657.000    22.7919964848   113.8596042809      3.244      0.152     15.326    0.005       1 
94658.000    22.7919995878   113.8597540485      3.210      0.467     15.484   -0.038       1 
94659.000    22.7920072731   113.8599057704      3.171      1.104     15.522   -0.055       1 
94660.000    22.7920203432   113.8600575754      3.103      1.587     15.549   -0.089       1 
94661.000    22.7920355547   113.8602079912      3.067      1.641     15.196   -0.010       1 
94662.000    22.7920529871   113.8603530456      3.039      2.061     14.441   -0.019       1 
94663.000    22.7920742281   113.8604914845      3.000      2.424     14.048   -0.017       1 
94664.000    22.7920970381   113.8606257958      2.985      2.516     13.526   -0.021       1 
94665.000    22.7921211766   113.8607556166      2.971      2.739     13.089   -0.063       1 
94666.000    22.7921484255   113.8608815194      2.912      3.058     12.683   -0.028       1 
94667.000    22.7921772325   113.8610038937      2.878      3.219     12.398   -0.035       1 
94668.000    22.7922078187   113.8611249966      2.824      3.491     12.484   -0.001       1 
94669.000    22.7922407461   113.8612466208      2.791      3.674     12.405   -0.033       1 
94670.000    22.7922754269   113.8613666703      2.759      3.930     12.320   -0.001       1 
94671.000    22.7923127496   113.8614862778      2.752      4.214     12.159    0.034       1 
94672.000    22.7923530907   113.8616053054      2.800      4.599     12.299    0.087       1 
94673.000    22.7923974701   113.8617267994      2.864      5.113     12.590    0.087       1 
94674.000    22.7924455096   113.8618496966      2.971      5.372     12.486    0.108       1 
94675.000    22.7924941842   113.8619700349      3.126      5.376     12.266    0.175       1 
94676.000    22.7925422528   113.8620879119      3.325      5.295     11.933    0.203       1 
94677.000    22.7925910309   113.8622037150      3.530      5.483     11.930    0.212       1 
94678.000    22.7926415646   113.8623189790      3.723      5.607     11.653    0.176       1 
94679.000    22.7926918610   113.8624311380      3.924      5.465     11.329    0.227       1 
94680.000    22.7927403913   113.8625389642      4.117      5.287     10.834    0.230       1 
94681.000    22.7927867663   113.8626415150      4.286      4.957     10.178    0.149       1 
94682.000    22.7928304349   113.8627376798      4.443      4.731      9.654    0.138       1 
94683.000    22.7928718570   113.8628287500      4.561      4.392      8.977    0.159       1 
94684.000    22.7929089548   113.8629107977      4.664      3.886      7.979    0.118       1 
94685.000    22.7929413608   113.8629831165      4.747      3.310      6.850    0.066       1 
94686.000    22.7929673247   113.8630415164      4.802      2.463      5.069   -0.009       1 
94687.000    22.7929866294   113.8630839051      4.836      1.943      3.954    0.054       1 
94688.000    22.7930027190   113.8631196042      4.873      1.538      3.171    0.015       1 
94689.000    22.7930125888   113.8631425711      4.896      0.718      1.542    0.029       1 
94690.000    22.7930154509   113.8631493209      4.904     -0.042     -0.083    0.024       1 
94691.000    22.7930154271   113.8631492612      4.908      0.001      0.000    0.003       1 
94692.000    22.7930154281   113.8631492514      4.908      0.000     -0.002   -0.001       1 
94693.000    22.7930154328   113.8631492484      4.908      0.000     -0.002    0.004       1 
94694.000    22.7930154388   113.8631492473      4.909     -0.001     -0.007    0.006       1 
94695.000    22.7930154415   113.8631492499      4.910     -0.001      0.001    0.005       1 
94696.000    22.7930154359   113.8631492394      4.910     -0.001      0.004    0.002       1 
94697.000    22.7930154316   113.8631492408      4.909      0.001      0.001    0.000       1 
