   GPSTime         Latitude        Longitude      H-Ell      Vel-N      Vel-E    Vel-U   Q
     (sec)            (Deg)            (Deg)        (m)      (m/s)      (m/s)    (m/s)  
 216434.00    30.4875777832   114.5580327292     24.118      0.064    -11.492   -0.185       1 
 216435.00    30.4874703373   114.5580332432     23.944      0.042    -12.313   -0.195       1 
 216436.00    30.4873557295   114.5580337598     23.759      0.065    -13.085   -0.193       1 
 216437.00    30.4872343802   114.5580336606     23.576     -0.029    -13.838   -0.164       1 
 216438.00    30.4871065363   114.5580336235     23.379      0.009    -14.500   -0.271       1 
 216439.00    30.4869726090   114.5580337738     23.173      0.002    -15.083   -0.219       1 
 216440.00    30.4868365956   114.5580339542     22.945      0.018    -14.999   -0.191       1 
 216441.00    30.4867029970   114.5580340351     22.739     -0.007    -14.599   -0.180       1 
 216442.00    30.4865735721   114.5580337930     22.520     -0.059    -14.136   -0.250       1 
 216443.00    30.4864470768   114.5580325965     22.326     -0.130    -13.963   -0.218       1 
 216444.00    30.4863204721   114.5580316912     22.121     -0.053    -14.152   -0.237       1 
 216445.00    30.4861915075   114.5580311421     21.929     -0.047    -14.454   -0.177       1 
 216446.00    30.4860598121   114.5580307186     21.702     -0.024    -14.757   -0.245       1 
 216447.00    30.4859252093   114.5580304174     21.501     -0.063    -15.076   -0.240       1 
 216448.00    30.4857875978   114.5580302294     21.294      0.021    -15.449   -0.187       1 
 216449.00    30.4856467771   114.5580297656     21.066     -0.082    -15.802   -0.231       1 
 216450.00    30.4855025458   114.5580273692     20.841     -0.238    -16.170   -0.250       1 
 216451.00    30.4853548264   114.5580259060     20.607     -0.120    -16.564   -0.211       1 
 216452.00    30.4852036388   114.5580249977     20.374     -0.084    -16.957   -0.216       1 
 216453.00    30.4850489613   114.5580243152     20.125     -0.046    -17.330   -0.311       1 
 216454.00    30.4848908996   114.5580239937     19.894     -0.024    -17.720   -0.214       1 
 216455.00    30.4847296097   114.5580234457     19.613     -0.109    -18.041   -0.252       1 
 216456.00    30.4845661094   114.5580206789     19.365     -0.282    -18.047   -0.303       1 
 216457.00    30.4844041615   114.5580181264     19.108     -0.203    -17.879   -0.239       1 
 216458.00    30.4842432653   114.5580165165     18.909     -0.095    -17.790   -0.212       1 
 216459.00    30.4840836114   114.5580165086     18.754      0.026    -17.568   -0.085       1 
 216460.00    30.4839269070   114.5580163017     18.661     -0.025    -17.200   -0.050       1 
 216461.00    30.4837749965   114.5580156372     18.577     -0.086    -16.285   -0.081       1 
 216462.00    30.4836346346   114.5580149169     18.531     -0.054    -14.804   -0.055       1 
 216463.00    30.4835076618   114.5580148871     18.495      0.042    -13.272   -0.069       1 
 216464.00    30.4833985427   114.5580186282     18.428      0.649    -10.641   -0.065       1 
 216465.00    30.4833167786   114.5580344984     18.443      1.662     -7.746    0.085       1 
 216466.00    30.4832514089   114.5580595408     18.515      2.555     -6.759    0.049       1 
 216467.00    30.4831946494   114.5580916835     18.580      3.084     -5.820    0.082       1 
 216468.00    30.4831476453   114.5581286270     18.678      3.453     -4.497    0.115       1 
 216469.00    30.4831181667   114.5581738636     18.764      3.929     -2.259    0.079       1 
 216470.00    30.4831094005   114.5582192413     18.815      3.736     -0.631    0.054       1 
 216471.00    30.4831086360   114.5582642957     18.848      4.585      0.063   -0.007       1 
 216472.00    30.4831108800   114.5583176694     18.858      5.540      0.259    0.006       1 
 216473.00    30.4831135637   114.5583800988     18.875      6.402      0.317    0.011       1 
 216474.00    30.4831159122   114.5584507924     18.901      7.195      0.203   -0.013       1 
 216475.00    30.4831163230   114.5585288914     18.931      7.874     -0.015    0.016       1 
 216476.00    30.4831156955   114.5586135713     18.962      8.390     -0.081   -0.009       1 
 216477.00    30.4831147529   114.5586991744     18.999      7.992     -0.089    0.010       1 
 216478.00    30.4831135441   114.5587795273     19.030      7.468     -0.175    0.031       1 
 216479.00    30.4831114613   114.5588538582     19.076      6.786     -0.246    0.036       1 
 216480.00    30.4831089618   114.5589160251     19.150      5.010     -0.313    0.103       1 
 216481.00    30.4831042606   114.5589584263     19.167      3.587     -0.691   -0.029       1 
 216482.00    30.4830937309   114.5589865074     19.193      2.468     -1.237    0.016       1 
 216483.00    30.4830774345   114.5590039591     19.240      1.803     -1.996    0.058       1 
 216484.00    30.4830561313   114.5590066353     19.288      0.589     -2.331    0.022       1 
 216485.00    30.4830381335   114.5589971555     19.309     -0.448     -1.971    0.019       1 
 216486.00    30.4830258765   114.5589781903     19.327     -1.458     -1.407   -0.029       1 
 216487.00    30.4830230870   114.5589493650     19.339     -2.687     -0.412   -0.003       1 
 216488.00    30.4830235430   114.5589105622     19.324     -4.216     -0.146   -0.094       1 
 216489.00    30.4830217966   114.5588613668     19.293     -5.295     -0.152   -0.042       1 
 216490.00    30.4830217600   114.5587994133     19.227     -6.510      0.058   -0.070       1 
 216491.00    30.4830227696   114.5587260098     19.196     -7.532      0.124   -0.022       1 
 216492.00    30.4830237443   114.5586433312     19.212     -8.347      0.132   -0.047       1 
 216493.00    30.4830245780   114.5585527733     19.238     -9.056      0.094    0.016       1 
 216494.00    30.4830252024   114.5584552686     19.281     -9.678      0.062    0.053       1 
 216495.00    30.4830254365   114.5583516135     19.364    -10.225     -0.016    0.112       1 
 216496.00    30.4830253415   114.5582426514     19.513    -10.666      0.002    0.150       1 
 216497.00    30.4830253773   114.5581292075     19.728    -11.084     -0.015    0.221       1 
 216498.00    30.4830253876   114.5580117482     19.947    -11.449     -0.006    0.251       1 
 216499.00    30.4830261723   114.5578905676     20.206    -11.785      0.150    0.268       1 
 216500.00    30.4830278097   114.5577659907     20.484    -12.134      0.201    0.273       1 
 216501.00    30.4830291377   114.5576380487     20.771    -12.441      0.113    0.339       1 
 216502.00    30.4830299822   114.5575071325     21.091    -12.730      0.066    0.256       1 
 216503.00    30.4830300703   114.5573733234     21.392    -12.989      0.018    0.221       1 
 216504.00    30.4830298490   114.5572366251     21.696    -13.254     -0.046    0.356       1 
 216505.00    30.4830295257   114.5570972183     22.029    -13.523     -0.030    0.342       1 
 216506.00    30.4830293449   114.5569549569     22.354    -13.796     -0.028    0.324       1 
 216507.00    30.4830292547   114.5568099437     22.693    -14.035     -0.008    0.315       1 
 216508.00    30.4830296060   114.5566623949     23.032    -14.274      0.065    0.350       1 
 216509.00    30.4830310098   114.5565125579     23.388    -14.501      0.180    0.288       1 
 216510.00    30.4830328812   114.5563603886     23.738    -14.708      0.267    0.230       1 
 216511.00    30.4830348889   114.5562059909     24.091    -14.949      0.169    0.419       1 
 216512.00    30.4830359409   114.5560494454     24.454    -15.129      0.087    0.309       1 
 216513.00    30.4830364989   114.5558907870     24.806    -15.332      0.073    0.351       1 
 216514.00    30.4830371685   114.5557299881     25.183    -15.520      0.059    0.457       1 
 216515.00    30.4830378664   114.5555672361     25.562    -15.701      0.075    0.392       1 
 216516.00    30.4830387511   114.5554026758     25.959    -15.874      0.114    0.357       1 
 216517.00    30.4830397290   114.5552362608     26.343    -16.063      0.119    0.399       1 
 216518.00    30.4830408047   114.5550680420     26.756    -16.245      0.130    0.344       1 
 216519.00    30.4830419179   114.5548979611     27.145    -16.413      0.124    0.363       1 
 216520.00    30.4830432137   114.5547260091     27.519    -16.620      0.140    0.389       1 
 216521.00    30.4830444314   114.5545523212     27.936    -16.755      0.137    0.418       1 
 216522.00    30.4830457050   114.5543772005     28.343    -16.906      0.129    0.438       1 
 216523.00    30.4830467925   114.5542004847     28.724    -17.047      0.135    0.229       1 
 216524.00    30.4830480453   114.5540220209     29.040    -17.209      0.170    0.121       1 
 216525.00    30.4830498367   114.5538414475     29.223    -17.448      0.228    0.109       1 
 216526.00    30.4830519860   114.5536579447     29.266    -17.778      0.282   -0.068       1 
 216527.00    30.4830541725   114.5534710342     29.185    -18.120      0.213   -0.126       1 
 216528.00    30.4830562529   114.5532802184     28.985    -18.522      0.246   -0.358       1 
 216529.00    30.4830581755   114.5530846953     28.574    -19.025      0.218   -0.442       1 
 216530.00    30.4830601825   114.5528838555     28.080    -19.558      0.200   -0.601       2 
 216531.00    30.4830615779   114.5526775416     27.527    -20.099      0.164   -0.547       2 
 216532.00    30.4830625616   114.5524657564     26.963    -20.605      0.073   -0.571       2 
 216533.00    30.4830631226   114.5522491081     26.368    -20.902      0.078   -0.561       2 
 216534.00    30.4830649097   114.5520326932     25.781    -20.674      0.209   -0.599       2 
 216535.00    30.4830670922   114.5518185901     25.192    -20.430      0.286   -0.690       2 
 216536.00    30.4830694871   114.5516066690     24.509    -20.248      0.251   -0.725       1 
 216537.00    30.4830711274   114.5514009003     23.836    -19.098      0.158   -0.646       1 
 216538.00    30.4830738061   114.5512091036     23.166    -17.669      0.388   -0.788       1 
 216539.00    30.4830773980   114.5510344308     22.567    -15.795      0.427   -0.786       1 
 216540.00    30.4830814856   114.5508727474     21.948    -15.482      0.463   -0.638       1 
 216541.00    30.4830849253   114.5507103506     21.346    -15.761      0.357   -0.680       1 
 216542.00    30.4830878603   114.5505442693     20.710    -16.116      0.302   -0.623       1 
 216543.00    30.4830901621   114.5503788136     20.066    -15.306      0.219   -0.590       1 
 216544.00    30.4830917283   114.5502276076     19.496    -14.166      0.152   -0.657       1 
 216545.00    30.4830929056   114.5500800399     18.951    -14.219      0.119   -0.458       1 
 216546.00    30.4830942578   114.5499298660     18.521    -14.638      0.141   -0.436       1 
 216547.00    30.4830947516   114.5497749076     18.163    -15.139      0.001   -0.296       1 
 216548.00    30.4830941068   114.5496153570     17.936    -15.518     -0.091   -0.226       1 
 216549.00    30.4830941065   114.5494519473     17.819    -15.831      0.074   -0.072       1 
 216550.00    30.4830952261   114.5492856460     17.853    -16.072      0.192    0.051       1 
 216551.00    30.4830960632   114.5491176788     17.933    -16.145      0.076    0.075       1 
 216552.00    30.4830963381   114.5489512367     18.029    -15.764      0.015    0.067       1 
 216553.00    30.4830962004   114.5487891919     18.070    -15.340      0.012   -0.007       1 
 216554.00    30.4830962697   114.5486315746     18.115    -14.896      0.007    0.056       1 
 216555.00    30.4830962418   114.5484804415     18.170    -13.993     -0.035    0.041       1 
 216556.00    30.4830933049   114.5483421879     18.226    -12.586     -0.473    0.021       1 
 216557.00    30.4830882568   114.5482191427     18.281    -11.039     -0.537    0.080       1 
 216558.00    30.4830833656   114.5481157517     18.325     -8.621     -0.528    0.007       1 
 216559.00    30.4830792261   114.5480321019     18.364     -7.856     -0.373    0.058       1 
 216560.00    30.4830779455   114.5479466224     18.394     -8.551     -0.028    0.013       1 
 216561.00    30.4830786091   114.5478528898     18.426     -9.404      0.128    0.032       1 
 216562.00    30.4830800517   114.5477508067     18.434    -10.199      0.163    0.016       1 
 216563.00    30.4830814130   114.5476407312     18.398    -10.922      0.189   -0.064       1 
 216564.00    30.4830818253   114.5475226327     18.280    -11.707     -0.070   -0.161       1 
 216565.00    30.4830800890   114.5473970819     18.161    -12.370     -0.193   -0.144       1 
 216566.00    30.4830795398   114.5472644827     18.030    -12.995      0.105   -0.253       1 
 216567.00    30.4830803411   114.5471252835     17.889    -13.682      0.119   -0.164       1 
 216568.00    30.4830806956   114.5469798700     17.766    -14.255     -0.024   -0.103       1 
 216569.00    30.4830805269   114.5468288726     17.639    -14.774     -0.031   -0.047       1 
 216570.00    30.4830801602   114.5466724784     17.524    -15.273     -0.072   -0.120       1 
 216571.00    30.4830796433   114.5465109134     17.360    -15.703     -0.043   -0.138       1 
 216572.00    30.4830796619   114.5463444674     17.197    -16.170      0.016   -0.192       1 
 216573.00    30.4830804054   114.5461771068     17.065    -15.904      0.137   -0.108       1 
 216574.00    30.4830823398   114.5460126356     16.954    -15.648      0.366   -0.290       1 
 216575.00    30.4830847008   114.5458516268     16.907    -15.274      0.188    0.011       1 
 216576.00    30.4830839392   114.5456947656     16.956    -14.863     -0.272    0.087       1 
 216577.00    30.4830820868   114.5455426328     17.061    -14.381     -0.111    0.131       1 
 216578.00    30.4830828605   114.5453954204     17.175    -13.867      0.182    0.099       1 
 216579.00    30.4830840934   114.5452540665     17.285    -13.275      0.118    0.134       1 
 216580.00    30.4830849884   114.5451191588     17.390    -12.629      0.066    0.142       1 
 216581.00    30.4830845499   114.5449909337     17.498    -11.982     -0.094    0.149       1 
 216582.00    30.4830836977   114.5448700403     17.598    -11.308     -0.091    0.053       1 
 216583.00    30.4830826946   114.5447532041     17.687    -11.225     -0.126    0.074       1 
 216584.00    30.4830812030   114.5446363627     17.782    -11.096     -0.175    0.069       1 
 216585.00    30.4830797565   114.5445232589     17.896    -10.614     -0.122    0.077       1 
 216586.00    30.4830789332   114.5444153607     17.979    -10.124     -0.070    0.085       1 
 216587.00    30.4830783494   114.5443125313     18.051     -9.616     -0.072    0.107       1 
 216588.00    30.4830773242   114.5442147617     18.107     -9.165     -0.114    0.028       1 
 216589.00    30.4830762022   114.5441222778     18.178     -8.616     -0.116    0.091       1 
 216590.00    30.4830755466   114.5440351563     18.209     -8.111     -0.063    0.018       1 
 216591.00    30.4830751701   114.5439534006     18.257     -7.575      0.001   -0.055       1 
 216592.00    30.4830750097   114.5438776292     18.191     -6.605      0.003   -0.029       1 
 216593.00    30.4830749462   114.5438185361     18.174     -4.935     -0.016   -0.032       1 
 216594.00    30.4830747899   114.5437746391     18.151     -3.430     -0.019   -0.016       1 
 216595.00    30.4830747247   114.5437465787     18.140     -2.137     -0.016    0.021       1 
 216596.00    30.4830746852   114.5437282455     18.139     -1.255      0.010   -0.020       1 
 216597.00    30.4830746703   114.5437210760     18.140     -0.133     -0.003    0.001       1 
 216598.00    30.4830746701   114.5437210992     18.147      0.003      0.007   -0.020       1 
 216599.00    30.4830746705   114.5437210903     18.147     -0.010     -0.008    0.023       1 
 216600.00    30.4830746671   114.5437210846     18.148      0.009      0.010   -0.024       1 
 216601.00    30.4830746645   114.5437210825     18.149      0.008      0.012   -0.028       1 
 216602.00    30.4830746630   114.5437210830     18.148     -0.008     -0.006    0.015       1 
 216603.00    30.4830746611   114.5437210854     18.148     -0.000      0.003   -0.004       1 
 216604.00    30.4830746647   114.5437210901     18.148      0.006      0.012   -0.027       1 
 216605.00    30.4830746694   114.5437210918     18.147     -0.003     -0.005    0.012       1 
 216606.00    30.4830746744   114.5437210966     18.146      0.000     -0.004    0.010       1 
 216607.00    30.4830746768   114.5437211024     18.144      0.001      0.010   -0.021       1 
 216608.00    30.4830746793   114.5437211002     18.144     -0.013     -0.009    0.025       1 
 216609.00    30.4830746816   114.5437210959     18.144      0.013      0.004   -0.010       1 
 216610.00    30.4830746823   114.5437210917     18.144      0.010      0.012   -0.030       1 
 216611.00    30.4830746823   114.5437210868     18.145     -0.013     -0.011    0.030       1 
 216612.00    30.4830746843   114.5437210840     18.146      0.007      0.011   -0.023       1 
 216613.00    30.4830746820   114.5437210837     18.147     -0.007     -0.002    0.006       1 
 216614.00    30.4830746703   114.5437210872     18.148     -0.007      0.001   -0.000       1 
 216615.00    30.4830746855   114.5437210714     18.147      0.009      0.003   -0.006       1 
 216616.00    30.4830746883   114.5437210793     18.148     -0.002     -0.002    0.005       1 
 216617.00    30.4830746892   114.5437210771     18.148     -0.005     -0.007    0.017       1 
 216618.00    30.4830746884   114.5437210724     18.147      0.003     -0.002    0.003       1 
 216619.00    30.4830746868   114.5437210710     18.147      0.006      0.005   -0.011       1 
 216620.00    30.4830746824   114.5437210727     18.148      0.003      0.018   -0.034       1 
 216621.00    30.4830746826   114.5437210734     18.148     -0.001      0.011   -0.019       1 
 216622.00    30.4830746843   114.5437210734     18.148     -0.005     -0.001   -0.000       1 
 216623.00    30.4830746874   114.5437210758     18.147     -0.000     -0.004    0.007       1 
 216624.00    30.4830746875   114.5437210749     18.146      0.002     -0.003    0.004       1 
 216625.00    30.4830746849   114.5437210753     18.146      0.006      0.002   -0.003       1 
 216626.00    30.4830746845   114.5437210743     18.146      0.004      0.010   -0.021       1 
 216627.00    30.4830746866   114.5437210784     18.146     -0.000      0.012   -0.023       1 
 216628.00    30.4830746873   114.5437210811     18.145     -0.002      0.005   -0.008       1 
 216629.00    30.4830746864   114.5437210837     18.145     -0.001     -0.008    0.016       1 
 216630.00    30.4830746846   114.5437210868     18.145      0.004     -0.009    0.017       1 
 216631.00    30.4830746795   114.5437210888     18.145      0.002     -0.004    0.008       1 
 216632.00    30.4830746783   114.5437210936     18.145      0.003      0.005   -0.008       1 
 216633.00    30.4830746794   114.5437210930     18.146      0.002      0.006   -0.009       1 
 216634.00    30.4830746698   114.5437210941     18.148      0.008      0.007   -0.012       1 
 216635.00    30.4830746829   114.5437210941     18.147      0.009      0.013   -0.026       1 
 216636.00    30.4830746845   114.5437210948     18.148     -0.003      0.009   -0.016       1 
 216637.00    30.4830746810   114.5437210928     18.148      0.008      0.006   -0.015       1 
