   GPSTime         Latitude        Longitude      H-Ell      Vel-N      Vel-E    Vel-U   Q
     (sec)            (Deg)            (Deg)        (m)      (m/s)      (m/s)    (m/s)  
 301139.00    30.5035594731   114.5778072122     27.640     -0.018      7.020    0.123       1 
 301140.00    30.5036252220   114.5778070500     27.747     -0.025      7.528    0.143       1 
 301141.00    30.5036955840   114.5778069570     27.916     -0.006      8.043    0.175       1 
 301142.00    30.5037708224   114.5778066984     28.042     -0.009      8.621    0.125       1 
 301143.00    30.5038509987   114.5778065479     28.137     -0.024      9.070    0.018       1 
 301144.00    30.5039318166   114.5778064590     28.188     -0.004      8.883    0.049       1 
 301145.00    30.5040124450   114.5778067372     28.208      0.055      9.055    0.031       1 
 301146.00    30.5040954530   114.5778074276     28.259      0.074      9.374    0.072       1 
 301147.00    30.5041821662   114.5778082456     28.320      0.057      9.852    0.047       1 
 301148.00    30.5042733716   114.5778083024     28.334     -0.078     10.382   -0.016       1 
 301149.00    30.5043694203   114.5778055530     28.300     -0.423     10.874   -0.029       1 
 301150.00    30.5044697579   114.5777999287     28.228     -0.649     11.330   -0.047       1 
 301151.00    30.5045739536   114.5777924433     28.179     -0.761     11.767   -0.077       1 
 301152.00    30.5046821267   114.5777855105     28.061     -0.613     12.190   -0.104       1 
 301153.00    30.5047930716   114.5777804251     27.935     -0.393     12.280   -0.133       1 
 301154.00    30.5049029087   114.5777770685     27.841     -0.234     12.198   -0.110       1 
 301155.00    30.5050144805   114.5777751788     27.736     -0.129     12.587   -0.107       1 
 301156.00    30.5051301551   114.5777742524     27.616     -0.080     13.052   -0.113       1 
 301157.00    30.5052496754   114.5777734711     27.496     -0.074     13.318   -0.122       1 
 301158.00    30.5053688238   114.5777729741     27.375     -0.027     13.146   -0.107       1 
 301159.00    30.5054878035   114.5777726612     27.256     -0.040     13.219   -0.117       1 
 301160.00    30.5056074589   114.5777720714     27.127     -0.071     13.236   -0.062       1 
 301161.00    30.5057257812   114.5777713241     27.016     -0.059     12.997   -0.118       1 
 301162.00    30.5058416996   114.5777706010     26.906     -0.060     12.718   -0.127       1 
 301163.00    30.5059547610   114.5777699098     26.800     -0.055     12.350   -0.094       1 
 301164.00    30.5060644824   114.5777693836     26.691     -0.043     11.958   -0.079       1 
 301165.00    30.5061707803   114.5777692344     26.576      0.029     11.599   -0.106       1 
 301166.00    30.5062738645   114.5777696121     26.453      0.035     11.234   -0.111       1 
 301167.00    30.5063735260   114.5777700207     26.367      0.045     10.860   -0.107       1 
 301168.00    30.5064693558   114.5777702519     26.270      0.032     10.419   -0.105       1 
 301169.00    30.5065618305   114.5777704385     26.177     -0.001     10.098   -0.099       1 
 301170.00    30.5066513180   114.5777702720     26.085     -0.083      9.734   -0.056       1 
 301171.00    30.5067375247   114.5777677588     26.024     -0.419      9.360   -0.056       1 
 301172.00    30.5068202675   114.5777617240     25.943     -0.734      8.989   -0.086       1 
 301173.00    30.5069002351   114.5777533198     25.896     -0.842      8.792   -0.071       1 
 301174.00    30.5069788834   114.5777458232     25.819     -0.615      8.612   -0.081       1 
 301175.00    30.5070550626   114.5777407841     25.751     -0.351      8.266   -0.059       1 
 301176.00    30.5071279905   114.5777382162     25.675     -0.179      7.922   -0.084       1 
 301177.00    30.5071974245   114.5777370782     25.598     -0.053      7.451   -0.083       1 
 301178.00    30.5072609640   114.5777368512     25.538      0.003      6.589   -0.068       1 
 301179.00    30.5073150692   114.5777369949     25.476      0.018      5.400   -0.082       1 
 301180.00    30.5073597255   114.5777372361     25.416      0.031      4.541   -0.081       1 
 301181.00    30.5073965132   114.5777374009     25.365      0.002      3.659   -0.037       1 
 301182.00    30.5074254133   114.5777374821     25.336      0.013      2.812   -0.016       1 
 301183.00    30.5074497730   114.5777373438     25.321     -0.023      2.612   -0.001       1 
 301184.00    30.5074724835   114.5777371016     25.309     -0.005      2.387   -0.004       1 
 301185.00    30.5074914832   114.5777369907     25.298     -0.003      1.842   -0.016       1 
 301186.00    30.5075052461   114.5777369248     25.288     -0.004      1.105    0.012       1 
 301187.00    30.5075108693   114.5777369018     25.283      0.001      0.147   -0.013       1 
 301188.00    30.5075108829   114.5777368955     25.284     -0.007      0.010   -0.016       1 
 301189.00    30.5075108832   114.5777368936     25.284     -0.000     -0.019    0.024       1 
 301190.00    30.5075108864   114.5777368936     25.284     -0.004     -0.009    0.013       1 
 301191.00    30.5075108881   114.5777368900     25.285     -0.011      0.017   -0.020       1 
 301192.00    30.5075108877   114.5777368842     25.286     -0.012      0.026   -0.033       1 
 301193.00    30.5075108813   114.5777368832     25.286      0.003      0.004   -0.007       1 
 301194.00    30.5075108768   114.5777368893     25.286      0.006     -0.021    0.026       1 
 301195.00    30.5075108707   114.5777368968     25.286     -0.003      0.019   -0.022       1 
 301196.00    30.5075108720   114.5777368962     25.286      0.005     -0.004    0.005       1 
 301197.00    30.5075108728   114.5777368913     25.286     -0.001      0.006   -0.008       1 
 301198.00    30.5075108782   114.5777368864     25.285      0.002     -0.009    0.013       1 
 301199.00    30.5075108809   114.5777368841     25.285      0.004     -0.011    0.017       1 
 301200.00    30.5075108819   114.5777368840     25.285      0.001     -0.005    0.008       1 
 301201.00    30.5075108799   114.5777368871     25.285      0.005     -0.008    0.015       1 
 301202.00    30.5075108809   114.5777368910     25.285      0.002     -0.016    0.022       1 
 301203.00    30.5075108778   114.5777368962     25.285     -0.003      0.012   -0.013       1 
 301204.00    30.5075108740   114.5777368956     25.285      0.007     -0.016    0.023       1 
 301205.00    30.5075108728   114.5777368927     25.285     -0.002     -0.008    0.010       1 
 301206.00    30.5075108735   114.5777368867     25.285     -0.005      0.016   -0.018       1 
 301207.00    30.5075108796   114.5777368882     25.284     -0.002      0.004   -0.005       1 
 301208.00    30.5075108878   114.5777368900     25.283     -0.003     -0.012    0.012       1 
 301209.00    30.5075108969   114.5777368927     25.282     -0.004      0.009   -0.013       1 
 301210.00    30.5075108960   114.5777368915     25.281     -0.006      0.015   -0.022       1 
 301211.00    30.5075108937   114.5777368683     25.282      0.004      0.001   -0.002       1 
 301212.00    30.5075108873   114.5777368927     25.281      0.002     -0.003    0.006       1 
 301213.00    30.5075108937   114.5777368941     25.282      0.001      0.006    0.002       1 
 301214.00    30.5075124614   114.5777368965     25.282     -0.005      0.425   -0.025       1 
 301215.00    30.5075181850   114.5777369001     25.280     -0.006      0.969    0.004       1 
 301216.00    30.5075313137   114.5777368440     25.269     -0.001      1.902   -0.014       1 
 301217.00    30.5075514625   114.5777368141     25.254      0.021      2.476    0.012       1 
 301218.00    30.5075750649   114.5777368681     25.235      0.019      2.702   -0.002       1 
 301219.00    30.5076000206   114.5777371304     25.212      0.027      2.805   -0.016       1 
 301220.00    30.5076256839   114.5777375345     25.173      0.043      2.838   -0.036       1 
 301221.00    30.5076506495   114.5777381579     25.144      0.064      2.690   -0.019       1 
 301222.00    30.5076751757   114.5777388103     25.118      0.050      2.913   -0.008       1 
 301223.00    30.5077039901   114.5777385697     25.098     -0.118      3.566    0.001       1 
 301224.00    30.5077390776   114.5777346485     25.052     -0.659      3.964    0.033       1 
 301225.00    30.5077737885   114.5777240152     25.034     -1.388      3.726    0.009       1 
 301226.00    30.5078046385   114.5777045598     25.015     -2.326      3.313   -0.014       1 
 301227.00    30.5078317013   114.5776753108     24.975     -3.318      2.938   -0.047       1 
 301228.00    30.5078536579   114.5776360204     24.923     -4.332      2.302   -0.050       1 
 301229.00    30.5078686956   114.5775853456     24.879     -5.525      1.398   -0.015       1 
 301230.00    30.5078753179   114.5775249160     24.825     -6.189      0.579   -0.074       1 
 301231.00    30.5078775003   114.5774575881     24.730     -6.838     -0.016   -0.062       1 
 301232.00    30.5078740217   114.5773844018     24.697     -7.331     -0.520   -0.019       1 
 301233.00    30.5078687583   114.5773056695     24.680     -7.852     -0.549   -0.004       1 
 301234.00    30.5078647666   114.5772204776     24.669     -8.482     -0.376   -0.010       1 
 301235.00    30.5078625521   114.5771286637     24.639     -9.101     -0.163   -0.034       1 
 301236.00    30.5078617444   114.5770304486     24.582     -9.745     -0.095   -0.058       1 
 301237.00    30.5078606014   114.5769261639     24.536    -10.298     -0.141   -0.099       1 
 301238.00    30.5078587904   114.5768162127     24.501    -10.844     -0.212   -0.042       1 
 301239.00    30.5078567288   114.5766998222     24.486    -11.478     -0.227    0.022       1 
 301240.00    30.5078551615   114.5765766019     24.456    -12.131     -0.159   -0.052       1 
 301241.00    30.5078536155   114.5764466397     24.409    -12.787     -0.185    0.010       1 
 301242.00    30.5078518567   114.5763104722     24.432    -13.362     -0.192   -0.025       1 
 301243.00    30.5078493575   114.5761687457     24.461    -13.876     -0.358    0.043       1 
 301244.00    30.5078454895   114.5760239522     24.523    -13.828     -0.493    0.148       1 
 301245.00    30.5078406082   114.5758819479     24.628    -13.507     -0.583    0.095       1 
 301246.00    30.5078350364   114.5757426727     24.768    -13.267     -0.659    0.206       1 
 301247.00    30.5078288298   114.5756049499     24.889    -13.190     -0.748    0.096       1 
 301248.00    30.5078216312   114.5754677669     25.070    -13.179     -0.884    0.153       1 
 301249.00    30.5078126092   114.5753307297     25.212    -13.177     -1.084    0.093       1 
 301250.00    30.5078027615   114.5751938336     25.458    -13.143     -1.075    0.247       1 
 301251.00    30.5077936990   114.5750566372     25.661    -13.198     -0.984    0.167       1 
 301252.00    30.5077847298   114.5749189683     25.835    -13.151     -0.977    0.213       1 
 301253.00    30.5077770930   114.5747840996     26.020    -12.711     -0.749    0.182       1 
 301254.00    30.5077715266   114.5746540110     26.172    -12.333     -0.580    0.232       1 
 301255.00    30.5077666949   114.5745248049     26.361    -12.510     -0.531    0.157       1 
 301256.00    30.5077619512   114.5743928476     26.527    -12.828     -0.505    0.140       1 
 301257.00    30.5077579075   114.5742574964     26.707    -13.145     -0.445    0.229       1 
 301258.00    30.5077533921   114.5741190094     26.878    -13.411     -0.535    0.208       1 
 301259.00    30.5077483424   114.5739795579     27.075    -13.243     -0.554    0.083       1 
 301260.00    30.5077432663   114.5738442425     27.251    -12.734     -0.550    0.190       1 
 301261.00    30.5077383812   114.5737142988     27.404    -12.232     -0.529    0.152       1 
 301262.00    30.5077337431   114.5735890555     27.553    -11.903     -0.487    0.161       1 
 301263.00    30.5077304155   114.5734661256     27.725    -11.675     -0.313    0.182       1 
 301264.00    30.5077276475   114.5733455552     27.888    -11.483     -0.352    0.148       1 
 301265.00    30.5077236682   114.5732269406     28.050    -11.387     -0.506    0.165       1 
 301266.00    30.5077187393   114.5731080637     28.216    -11.488     -0.567    0.162       1 
 301267.00    30.5077134865   114.5729875477     28.382    -11.670     -0.572    0.145       1 
 301268.00    30.5077086333   114.5728655746     28.524    -11.680     -0.514    0.133       1 
 301269.00    30.5077044198   114.5727448663     28.670    -11.470     -0.438    0.182       1 
 301270.00    30.5077007946   114.5726265037     28.824    -11.246     -0.403    0.172       1 
 301271.00    30.5076968512   114.5725102115     28.961    -11.135     -0.487    0.163       1 
 301272.00    30.5076919252   114.5723944771     29.076    -11.131     -0.582    0.087       1 
 301273.00    30.5076860696   114.5722785384     29.240    -11.139     -0.689    0.200       1 
 301274.00    30.5076800390   114.5721619828     29.419    -11.248     -0.616    0.130       1 
 301275.00    30.5076749735   114.5720436687     29.549    -11.454     -0.534    0.221       1 
 301276.00    30.5076699121   114.5719232576     29.700    -11.667     -0.592    0.161       1 
 301277.00    30.5076645519   114.5718007868     29.853    -11.853     -0.596    0.171       1 
 301278.00    30.5076594397   114.5716760731     29.994    -12.085     -0.565    0.155       1 
 301279.00    30.5076545568   114.5715492301     30.175    -12.215     -0.488    0.204       1 
 301280.00    30.5076503343   114.5714236118     30.333    -11.939     -0.484    0.219       1 
 301281.00    30.5076454933   114.5712984634     30.508    -12.139     -0.575    0.187       1 
 301282.00    30.5076407729   114.5711705191     30.681    -12.467     -0.464    0.099       1 
 301283.00    30.5076367535   114.5710382452     30.845    -12.945     -0.436    0.180       1 
 301284.00    30.5076331054   114.5709009807     31.031    -13.403     -0.394    0.177       1 
 301285.00    30.5076298203   114.5707589319     31.214    -13.834     -0.345    0.223       1 
 301286.00    30.5076269334   114.5706126240     31.409    -14.211     -0.292    0.195       1 
 301287.00    30.5076249517   114.5704628753     31.622    -14.473     -0.152    0.255       1 
 301288.00    30.5076246589   114.5703132780     31.817    -14.171      0.028    0.169       1 
 301289.00    30.5076254004   114.5701680029     32.004    -13.714      0.111    0.188       1 
 301290.00    30.5076268891   114.5700267066     32.193    -13.465      0.192    0.180       1 
 301291.00    30.5076293533   114.5698862135     32.402    -13.490      0.324    0.232       1 
 301292.00    30.5076329361   114.5697452754     32.587    -13.566      0.426    0.205       1 
 301293.00    30.5076364605   114.5696036196     32.775    -13.649      0.278    0.136       1 
 301294.00    30.5076371355   114.5694610863     32.936    -13.721     -0.056    0.157       1 
 301295.00    30.5076353732   114.5693179046     33.138    -13.784     -0.228    0.173       1 
 301296.00    30.5076324619   114.5691740645     33.310    -13.843     -0.360    0.186       1 
 301297.00    30.5076282324   114.5690296184     33.506    -13.890     -0.565    0.184       1 
 301298.00    30.5076224425   114.5688845315     33.684    -13.981     -0.687    0.176       1 
 301299.00    30.5076154005   114.5687387840     33.851    -14.044     -0.897    0.231       1 
 301300.00    30.5076049928   114.5685926932     34.059    -14.004     -1.315    0.204       1 
 301301.00    30.5075921120   114.5684484249     34.245    -13.628     -1.439    0.156       1 
 301302.00    30.5075786916   114.5683090265     34.426    -13.189     -1.580    0.142       1 
 301303.00    30.5075642983   114.5681734750     34.590    -12.864     -1.579    0.192       1 
 301304.00    30.5075499232   114.5680405993     34.789    -12.642     -1.603    0.134       1 
 301305.00    30.5075351232   114.5679092361     34.951    -12.566     -1.660    0.199       1 
 301306.00    30.5075196153   114.5677786941     35.142    -12.494     -1.770    0.165       1 
 301307.00    30.5075034350   114.5676489109     35.309    -12.450     -1.812    0.171       1 
 301308.00    30.5074874794   114.5675197407     35.476    -12.360     -1.710    0.142       1 
 301309.00    30.5074727934   114.5673910881     35.650    -12.328     -1.579    0.146       1 
 301310.00    30.5074581509   114.5672630797     35.817    -12.212     -1.650    0.082       1 
 301311.00    30.5074433166   114.5671358227     35.992    -12.193     -1.606    0.170       1 
 301312.00    30.5074290596   114.5670091105     36.136    -12.132     -1.579    0.139       1 
 301313.00    30.5074145853   114.5668828531     36.294    -12.083     -1.647    0.166       1 
 301314.00    30.5073995471   114.5667570214     36.431    -12.108     -1.689    0.150       1 
 301315.00    30.5073840042   114.5666303016     36.585    -12.213     -1.781    0.218       1 
 301316.00    30.5073675441   114.5665028676     36.772    -12.262     -1.860    0.143       1 
 301317.00    30.5073507951   114.5663747081     36.938    -12.331     -1.848    0.202       1 
 301318.00    30.5073343604   114.5662457500     37.117    -12.372     -1.780    0.161       1 
 301319.00    30.5073179453   114.5661162987     37.302    -12.446     -1.877    0.184       1 
 301320.00    30.5073011300   114.5659865237     37.478    -12.489     -1.860    0.170       1 
 301321.00    30.5072847004   114.5658564956     37.657    -12.397     -1.791    0.192       1 
 301322.00    30.5072691645   114.5657287951     37.794    -12.207     -1.652    0.090       1 
 301323.00    30.5072544083   114.5656007073     37.958    -12.403     -1.624    0.142       1 
 301324.00    30.5072394659   114.5654714819     38.109    -12.337     -1.657    0.084       1 
 301325.00    30.5072246732   114.5653457717     38.287    -11.812     -1.627    0.205       1 
 301326.00    30.5072103359   114.5652255405     38.429    -11.261     -1.564    0.092       1 
 301327.00    30.5071964559   114.5651108023     38.596    -10.827     -1.526    0.142       1 
 301328.00    30.5071830617   114.5649998393     38.720    -10.413     -1.415    0.250       1 
 301329.00    30.5071704451   114.5648939477     38.869     -9.905     -1.349    0.071       1 
 301330.00    30.5071583826   114.5647936427     39.011     -9.313     -1.303    0.076       1 
 301331.00    30.5071466674   114.5646996765     39.137     -8.745     -1.288    0.146       1 
 301332.00    30.5071353242   114.5646111553     39.236     -8.240     -1.219    0.065       1 
 301333.00    30.5071251070   114.5645327247     39.313     -6.468     -0.985    0.100       1 
 301334.00    30.5071181815   114.5644800088     39.375     -3.585     -0.544    0.040       1 
 301335.00    30.5071145534   114.5644523366     39.410     -2.277     -0.352    0.030       1 
 301336.00    30.5071117090   114.5644304724     39.430     -1.779     -0.279    0.030       1 
 301337.00    30.5071098981   114.5644166416     39.440     -0.829     -0.128    0.010       1 
 301338.00    30.5071094425   114.5644129604     39.441      0.033     -0.004    0.010       1 
 301339.00    30.5071094572   114.5644129960     39.441     -0.003      0.001   -0.001       1 
 301340.00    30.5071094483   114.5644129421     39.442     -0.051     -0.005   -0.005       1 
 301341.00    30.5071089387   114.5644088653     39.451     -1.010     -0.164    0.032       1 
 301342.00    30.5071065493   114.5643904193     39.480     -2.509     -0.376    0.050       1 
