   GPSTime         Latitude        Longitude      H-Ell      Vel-N      Vel-E    Vel-U   Q
     (sec)            (Deg)            (Deg)        (m)      (m/s)      (m/s)    (m/s)  
 308522.00    30.5305909813   114.3425324032     15.998    -10.728      3.410    0.092       1 
 308523.00    30.5306228073   114.3424178183     16.128    -11.233      3.618    0.192       1 
 308524.00    30.5306564899   114.3422988895     16.283    -11.587      3.816    0.131       1 
 308525.00    30.5306917401   114.3421768869     16.437    -11.825      3.978    0.165       1 
 308526.00    30.5307283246   114.3420524981     16.606    -11.964      4.081    0.179       1 
 308527.00    30.5307649711   114.3419298213     16.752    -11.648      4.032    0.156       1 
 308528.00    30.5308014239   114.3418071319     16.896    -11.904      4.065    0.167       1 
 308529.00    30.5308381183   114.3416837880     17.043    -11.649      4.028    0.115       1 
 308530.00    30.5308739319   114.3415647677     17.182    -11.240      3.915    0.154       1 
 308531.00    30.5309091970   114.3414487961     17.329    -11.093      3.894    0.180       1 
 308532.00    30.5309448619   114.3413327448     17.491    -11.177      3.985    0.164       1 
 308533.00    30.5309812603   114.3412155726     17.623    -11.318      4.080    0.127       1 
 308534.00    30.5310179608   114.3410970384     17.772    -11.462      4.044    0.128       1 
 308535.00    30.5310538978   114.3409767278     17.928    -11.638      3.951    0.164       1 
 308536.00    30.5310899662   114.3408563776     18.085    -11.350      3.999    0.148       1 
 308537.00    30.5311260370   114.3407411006     18.248    -10.762      3.964    0.176       1 
 308538.00    30.5311619675   114.3406312469     18.389    -10.475      4.026    0.120       1 
 308539.00    30.5311989149   114.3405209715     18.518    -10.696      4.146    0.144       1 
 308540.00    30.5312365651   114.3404082318     18.669    -10.969      4.194    0.135       1 
 308541.00    30.5312743462   114.3402935386     18.811    -10.919      4.137    0.139       1 
 308542.00    30.5313108306   114.3401821567     18.951    -10.428      3.950    0.135       1 
 308543.00    30.5313459004   114.3400757443     19.074    -10.053      3.868    0.090       1 
 308544.00    30.5313809376   114.3399706208     19.204    -10.133      3.920    0.145       1 
 308545.00    30.5314165226   114.3398642946     19.339    -10.263      3.950    0.122       1 
 308546.00    30.5314515630   114.3397573772     19.468    -10.187      3.812    0.107       1 
 308547.00    30.5314846077   114.3396537219     19.601     -9.690      3.545    0.138       1 
 308548.00    30.5315162838   114.3395534830     19.737     -9.673      3.530    0.154       1 
 308549.00    30.5315485194   114.3394528340     19.856     -9.482      3.544    0.112       1 
 308550.00    30.5315811906   114.3393562299     19.987     -9.067      3.736    0.091       1 
 308551.00    30.5316164051   114.3392630784     20.082     -8.880      4.042    0.101       1 
 308552.00    30.5316547815   114.3391699720     20.188     -8.990      4.366    0.093       1 
 308553.00    30.5316934810   114.3390770712     20.293     -8.758      4.107    0.084       1 
 308554.00    30.5317281019   114.3389860318     20.391     -8.801      3.645    0.103       1 
 308555.00    30.5317603363   114.3388928399     20.515     -9.139      3.608    0.125       1 
 308556.00    30.5317936611   114.3387951607     20.564     -9.603      3.726    0.107       1 
 308557.00    30.5318278570   114.3386932960     20.602     -9.866      3.806   -0.011       1 
 308558.00    30.5318615763   114.3385923895     20.536     -9.517      3.688   -0.120       1 
 308559.00    30.5318937203   114.3384947268     20.424     -9.294      3.522   -0.146       1 
 308560.00    30.5319249942   114.3383950614     20.257     -9.844      3.467   -0.138       1 
 308561.00    30.5319567605   114.3382898751     20.100    -10.341      3.636   -0.133       1 
 308562.00    30.5319909800   114.3381785560     19.959    -11.004      3.929   -0.220       1 
 308563.00    30.5320277049   114.3380607792     19.790    -11.605      4.212   -0.165       0 
 308564.00    30.5320670162   114.3379371567     19.593    -12.120      4.490   -0.186       0 
 308565.00    30.5321084259   114.3378093075     19.370    -12.279      4.618   -0.185       0 
 308566.00    30.5321498657   114.3376828114     19.178    -12.016      4.563   -0.204       0 
 308567.00    30.5321909378   114.3375587671     18.975    -11.875      4.550   -0.200       2 
 308568.00    30.5322326466   114.3374341174     18.760    -12.000      4.673   -0.234       2 
 308569.00    30.5322745286   114.3373103571     18.567    -11.749      4.606   -0.157       2 
 308570.00    30.5323157298   114.3371890579     18.441    -11.595      4.487   -0.092       1 
 308571.00    30.5323554359   114.3370683972     18.371    -11.595      4.358   -0.073       1 
 308572.00    30.5323937770   114.3369473429     18.306    -11.618      4.206   -0.080       1 
 308573.00    30.5324323455   114.3368264567     18.256    -11.570      4.362   -0.103       1 
 308574.00    30.5324723449   114.3367059960     18.168    -11.543      4.496   -0.111       1 
 308575.00    30.5325131553   114.3365857077     18.081    -11.467      4.509   -0.057       1 
 308576.00    30.5325532749   114.3364677394     17.987    -11.175      4.394   -0.100       1 
 308577.00    30.5325919956   114.3363523745     17.905    -11.012      4.227   -0.088       1 
 308578.00    30.5326305255   114.3362361255     17.829    -11.299      4.334   -0.064       1 
 308579.00    30.5326710976   114.3361164014     17.758    -11.672      4.630   -0.046       1 
 308580.00    30.5327130959   114.3359931752     17.718    -11.958      4.714   -0.062       1 
 308581.00    30.5327559297   114.3358669137     17.638    -12.241      4.794   -0.076       1 
 308582.00    30.5327991302   114.3357391884     17.544    -12.196      4.721    0.012       1 
 308583.00    30.5328408680   114.3356138210     17.495    -11.886      4.520   -0.054       1 
 308584.00    30.5328811666   114.3354919276     17.436    -11.496      4.408   -0.039       1 
 308585.00    30.5329208406   114.3353738886     17.388    -11.138      4.356   -0.045       1 
 308586.00    30.5329601473   114.3352585296     17.376    -11.049      4.350   -0.030       1 
 308587.00    30.5329989451   114.3351434496     17.374    -11.041      4.299   -0.022       1 
 308588.00    30.5330377493   114.3350285029     17.373    -11.009      4.316   -0.003       1 
 308589.00    30.5330769724   114.3349138277     17.369    -10.965      4.359    0.013       1 
 308590.00    30.5331157261   114.3348006250     17.355    -10.709      4.199    0.006       1 
 308591.00    30.5331523887   114.3346912085     17.346    -10.166      3.879    0.036       1 
 308592.00    30.5331854771   114.3345910708     17.350     -8.938      3.406    0.009       1 
 308593.00    30.5332136047   114.3345057798     17.354     -7.435      2.839   -0.012       1 
 308594.00    30.5332367735   114.3344361515     17.345     -5.931      2.279   -0.005       1 
 308595.00    30.5332553987   114.3343820746     17.339     -4.505      1.801    0.004       1 
 308596.00    30.5332708866   114.3343383609     17.334     -4.021      1.651    0.004       1 
 308597.00    30.5332872884   114.3342927368     17.339     -4.838      1.982    0.027       1 
 308598.00    30.5333064758   114.3342380224     17.339     -5.645      2.260    0.003       1 
 308599.00    30.5333277710   114.3341756116     17.348     -6.332      2.458    0.002       1 
 308600.00    30.5333507286   114.3341067870     17.351     -6.895      2.654    0.000       1 
 308601.00    30.5333755653   114.3340322603     17.341     -7.396      2.862   -0.012       1 
 308602.00    30.5334026422   114.3339525157     17.293     -7.913      3.134   -0.074       1 
 308603.00    30.5334317026   114.3338675450     17.217     -8.387      3.311   -0.063       1 
 308604.00    30.5334623628   114.3337778951     17.121     -8.788      3.466   -0.071       1 
 308605.00    30.5334943188   114.3336846681     17.030     -9.101      3.602   -0.097       1 
 308606.00    30.5335280161   114.3335884307     16.916     -9.353      3.840   -0.087       1 
 308607.00    30.5335632329   114.3334892069     16.808     -9.668      3.951   -0.064       1 
 308608.00    30.5335992405   114.3333870165     16.716     -9.918      4.048   -0.081       0 
 308609.00    30.5336363206   114.3332821594     16.609    -10.214      4.154   -0.107       0 
 308610.00    30.5336739862   114.3331744724     16.511    -10.467      4.180   -0.125       0 
 308611.00    30.5337119165   114.3330645139     16.435    -10.626      4.266   -0.049       0 
 308612.00    30.5337505198   114.3329539600     16.395    -10.494      4.268   -0.025       2 
 308613.00    30.5337885878   114.3328463760     16.387    -10.139      4.158    0.011       2 
 308614.00    30.5338255100   114.3327425986     16.405     -9.785      4.018    0.003       1 
 308615.00    30.5338611936   114.3326427168     16.410     -9.387      3.874    0.024       1 
 308616.00    30.5338962526   114.3325439049     16.422     -9.640      3.929    0.042       1 
 308617.00    30.5339324147   114.3324417825     16.457     -9.963      4.071    0.046       1 
 308618.00    30.5339698227   114.3323367182     16.517    -10.210      4.220    0.048       1 
 308619.00    30.5340082807   114.3322291257     16.585    -10.454      4.323    0.090       1 
 308620.00    30.5340476752   114.3321190629     16.720    -10.695      4.422    0.156       1 
 308621.00    30.5340877747   114.3320074660     16.877    -10.582      4.414    0.150       2 
 308622.00    30.5341271714   114.3318988019     17.041    -10.313      4.324    0.182       2 
 308623.00    30.5341659850   114.3317915814     17.220    -10.285      4.297    0.171       2 
 308624.00    30.5342045585   114.3316842443     17.378    -10.310      4.228    0.189       2 
 308625.00    30.5342430773   114.3315755937     17.533    -10.532      4.284    0.171       2 
 308626.00    30.5342821191   114.3314647218     17.692    -10.732      4.363    0.162       2 
 308627.00    30.5343215860   114.3313522476     17.880    -10.826      4.416    0.160       2 
 308628.00    30.5343615173   114.3312406847     18.034    -10.638      4.449    0.161       2 
 308629.00    30.5344024371   114.3311300036     18.188    -10.491      4.554    0.156       2 
 308630.00    30.5344431280   114.3310232107     18.349    -10.017      4.431    0.148       2 
 308631.00    30.5344815869   114.3309212773     18.486     -9.550      4.084    0.121       2 
 308632.00    30.5345158187   114.3308254939     18.637     -8.841      3.602    0.158       2 
 308633.00    30.5345480562   114.3307364617     18.735     -8.282      3.502    0.113       2 
 308634.00    30.5345788384   114.3306524650     18.822     -7.874      3.339    0.065       0 
 308635.00    30.5346078521   114.3305699045     18.869     -8.144      3.081    0.045       0 
 308636.00    30.5346353109   114.3304836218     18.866     -8.388      3.094   -0.028       1 
 308637.00    30.5346628608   114.3303966675     18.802     -8.017      2.919   -0.070       1 
 308638.00    30.5346881390   114.3303148714     18.700     -7.745      2.657   -0.085       1 
 308639.00    30.5347112627   114.3302323658     18.595     -8.241      2.680   -0.112       1 
 308640.00    30.5347377819   114.3301417610     18.461     -9.152      3.094   -0.146       1 
 308641.00    30.5347671500   114.3300424569     18.304     -9.811      3.394   -0.169       1 
 308642.00    30.5347978827   114.3299411355     18.147     -9.474      3.259   -0.139       1 
 308643.00    30.5348236458   114.3298471924     18.012     -8.491      2.531   -0.132       1 
 308644.00    30.5348418633   114.3297742892     17.912     -6.088      1.743   -0.100       1 
 308645.00    30.5348572997   114.3297121019     17.832     -5.951      1.716   -0.066       1 
 308646.00    30.5348744798   114.3296491220     17.743     -6.062      2.037   -0.103       1 
 308647.00    30.5348946987   114.3295869005     17.639     -5.653      2.245   -0.085       1 
 308648.00    30.5349122145   114.3295366059     17.560     -3.830      1.560   -0.069       1 
 308649.00    30.5349227374   114.3295072202     17.523     -2.158      0.891   -0.019       1 
 308650.00    30.5349302610   114.3294867351     17.496     -1.599      0.680   -0.021       1 
 308651.00    30.5349342733   114.3294759218     17.479     -0.463      0.192    0.018       1 
 308652.00    30.5349346400   114.3294749678     17.481     -0.005      0.012   -0.018       1 
 308653.00    30.5349346443   114.3294749724     17.480     -0.015      0.025   -0.040       1 
 308654.00    30.5349346489   114.3294749765     17.481     -0.011      0.014   -0.019       1 
 308655.00    30.5349346567   114.3294749813     17.482     -0.014      0.007   -0.013       1 
 308656.00    30.5349346539   114.3294749854     17.484     -0.010      0.015   -0.024       1 
 308657.00    30.5349346477   114.3294749947     17.485     -0.006      0.017   -0.028       1 
 308658.00    30.5349346378   114.3294750051     17.487     -0.005      0.011   -0.020       1 
 308659.00    30.5349346274   114.3294750135     17.489     -0.006      0.009   -0.014       1 
 308660.00    30.5349346163   114.3294750165     17.491      0.002     -0.001    0.001       1 
 308661.00    30.5349346094   114.3294750165     17.493      0.005     -0.004    0.005       1 
 308662.00    30.5349346066   114.3294750190     17.496      0.002     -0.001    0.001       1 
 308663.00    30.5349346108   114.3294750205     17.498      0.003     -0.001    0.002       1 
 308664.00    30.5349346132   114.3294750165     17.500      0.015     -0.020    0.031       1 
 308665.00    30.5349346161   114.3294750136     17.500      0.018     -0.019    0.029       1 
 308666.00    30.5349346193   114.3294750117     17.500      0.016     -0.020    0.028       1 
 308667.00    30.5349346198   114.3294750099     17.499      0.014     -0.019    0.027       1 
 308668.00    30.5349346171   114.3294750004     17.499      0.021     -0.027    0.039       1 
 308669.00    30.5349346127   114.3294749907     17.499      0.020     -0.027    0.044       1 
 308670.00    30.5349346121   114.3294749878     17.499      0.015     -0.022    0.039       1 
 308671.00    30.5349346161   114.3294749946     17.499      0.010     -0.012    0.021       1 
 308672.00    30.5349346221   114.3294750017     17.499      0.012     -0.012    0.018       1 
 308673.00    30.5349346219   114.3294750001     17.498      0.003     -0.012    0.019       1 
 308674.00    30.5349346180   114.3294749843     17.496     -0.003     -0.000    0.002       1 
 308675.00    30.5349349731   114.3294740151     17.491     -0.270      0.123   -0.020       1 
 308676.00    30.5349375278   114.3294671744     17.481     -1.204      0.526   -0.022       1 
 308677.00    30.5349444864   114.3294487428     17.450     -2.307      1.007   -0.035       1 
 308678.00    30.5349557212   114.3294183870     17.401     -3.597      1.520   -0.049       1 
 308679.00    30.5349718461   114.3293738237     17.335     -4.927      2.058   -0.070       1 
 308680.00    30.5349925342   114.3293174288     17.255     -5.670      2.408   -0.095       1 
 308681.00    30.5350136727   114.3292599072     17.177     -5.356      2.273   -0.074       1 
 308682.00    30.5350348355   114.3292025983     17.092     -5.788      2.470   -0.074       1 
 308683.00    30.5350590388   114.3291376438     16.999     -6.737      2.912   -0.106       1 
 308684.00    30.5350873371   114.3290623219     16.905     -7.687      3.347   -0.104       1 
 308685.00    30.5351194915   114.3289775407     16.775     -8.540      3.791   -0.142       1 
 308686.00    30.5351559920   114.3288844940     16.615     -9.287      4.273   -0.151       1 
 308687.00    30.5351966651   114.3287839398     16.454     -9.984      4.730   -0.148       1 
 308688.00    30.5352410582   114.3286761831     16.271    -10.671      5.096   -0.197       1 
 308689.00    30.5352882791   114.3285613796     16.093    -11.343      5.365   -0.157       1 
 308690.00    30.5353372510   114.3284427589     15.943    -11.304      5.451   -0.143       1 
 308691.00    30.5353864806   114.3283262485     15.805    -11.035      5.455   -0.136       1 
 308692.00    30.5354354496   114.3282122088     15.690    -10.857      5.418   -0.101       1 
 308693.00    30.5354842370   114.3280993967     15.610    -10.812      5.414   -0.082       1 
 308694.00    30.5355332242   114.3279869096     15.521    -10.723      5.403   -0.072       1 
 308695.00    30.5355815169   114.3278768113     15.473    -10.434      5.283   -0.038       1 
 308696.00    30.5356280783   114.3277712608     15.426     -9.669      4.971   -0.030       1 
 308697.00    30.5356711220   114.3276758506     15.391     -8.796      4.639   -0.048       1 
 308698.00    30.5357126274   114.3275865342     15.353     -8.340      4.501    0.013       1 
 308699.00    30.5357525321   114.3275015875     15.329     -7.943      4.309   -0.015       1 
 308700.00    30.5357900122   114.3274210323     15.315     -7.521      4.014   -0.024       1 
 308701.00    30.5358245836   114.3273453275     15.312     -6.927      3.619    0.013       1 
 308702.00    30.5358554243   114.3272782447     15.313     -6.011      3.262   -0.019       1 
 308703.00    30.5358842491   114.3272188576     15.309     -5.382      3.097   -0.004       1 
 308704.00    30.5359107893   114.3271676407     15.303     -4.491      2.757    0.004       1 
 308705.00    30.5359377624   114.3271188267     15.306     -5.140      3.273    0.003       1 
 308706.00    30.5359686719   114.3270605684     15.287     -5.944      3.557   -0.022       1 
 308707.00    30.5360007637   114.3269958571     15.284     -6.465      3.619   -0.006       1 
 308708.00    30.5360338149   114.3269261390     15.293     -6.946      3.770    0.005       1 
 308709.00    30.5360690184   114.3268502797     15.298     -7.521      3.988    0.037       1 
 308710.00    30.5361045161   114.3267718369     15.284     -7.722      3.987    0.001       1 
 308711.00    30.5361414855   114.3266882764     15.274     -8.320      4.234   -0.032       1 
 308712.00    30.5361804598   114.3265990641     15.249     -8.654      4.344   -0.016       1 
 308713.00    30.5362184717   114.3265105808     15.274     -8.307      4.102    0.011       1 
 308714.00    30.5362551831   114.3264253555     15.273     -8.266      4.129    0.021       1 
 308715.00    30.5362941537   114.3263362241     15.278     -8.903      4.519    0.021       1 
 308716.00    30.5363369730   114.3262396890     15.308     -9.586      4.944    0.037       1 
 308717.00    30.5363818635   114.3261396187     15.327     -9.529      4.970   -0.005       1 
 308718.00    30.5364263069   114.3260394416     15.333     -9.775      4.904   -0.009       1 
 308719.00    30.5364697472   114.3259350845     15.348    -10.289      4.819    0.008       1 
 308720.00    30.5365128425   114.3258245028     15.396    -10.954      4.808    0.083       1 
 308721.00    30.5365571679   114.3257079523     15.481    -11.446      5.016    0.133       1 
 308722.00    30.5366038916   114.3255864898     15.564    -11.859      5.296    0.115       1 
 308723.00    30.5366520847   114.3254635984     15.675    -11.678      5.356    0.086       0 
 308724.00    30.5367011816   114.3253418947     15.791    -11.677      5.558    0.128       0 
 308725.00    30.5367531351   114.3252224120     15.947    -11.169      5.888    0.210       0 
