
   GPSTime         Latitude        Longitude      H-Ell      Vel-N      Vel-E    Vel-U       Q  
     (sec)            (Deg)            (Deg)        (m)      (m/s)      (m/s)    (m/s)          
485814.000    22.6225860313   113.9182501728     34.800      5.883    -10.929    0.291       2 
485815.000    22.6226404437   113.9181449971     35.085      6.154    -10.519    0.243       2 
485816.000    22.6226959821   113.9180447228     35.342      6.138    -10.059    0.356       2 
485817.000    22.6227507196   113.9179490206     35.619      6.049     -9.669    0.240       0 
485818.000    22.6228061823   113.9178549435     35.830      6.279     -9.725    0.195       0 
485819.000    22.6228641821   113.9177583240     36.029      6.523     -9.988    0.200       0 
485820.000    22.6229235503   113.9176617750     36.202      6.648     -9.865    0.143       0 
485821.000    22.6229859216   113.9175652821     36.335      7.123     -9.960    0.125       0 
485822.000    22.6230526511   113.9174675027     36.455      7.620    -10.076    0.102       0 
485823.000    22.6231234926   113.9173694411     36.559      7.970     -9.964    0.104       0 
485824.000    22.6231968957   113.9172734638     36.660      8.265     -9.803    0.098       0 
485825.000    22.6232735769   113.9171782905     36.787      8.643     -9.796    0.133       0 
485826.000    22.6233528985   113.9170822481     36.901      8.918     -9.931    0.111       0 
485827.000    22.6234347986   113.9169859235     37.032      9.163     -9.716    0.122       0 
485828.000    22.6235186157   113.9168925726     37.130      9.377     -9.407    0.070       0 
485829.000    22.6236048304   113.9168013539     37.257      9.710     -9.301    0.135       0 
485830.000    22.6236946135   113.9167111858     37.422     10.119     -9.255    0.174       0 
485831.000    22.6237882032   113.9166213933     37.582     10.536     -9.237    0.151       2 
485832.000    22.6238854566   113.9165312395     37.737     10.950     -9.316    0.147       2 
485833.000    22.6239857636   113.9164391635     37.899     11.269     -9.611    0.149       2 
485834.000    22.6240887142   113.9163443077     38.058     11.568     -9.887    0.150       1 
485835.000    22.6241940555   113.9162475210     38.210     11.724     -9.872    0.142       1 
485836.000    22.6243000337   113.9161518985     38.349     11.771     -9.723    0.124       1 
485837.000    22.6244051297   113.9160569049     38.435     11.522     -9.863    0.096       1 
485838.000    22.6245084644   113.9159600384     38.492     11.428    -10.044    0.049       1 
485839.000    22.6246113965   113.9158628802     38.532     11.380     -9.817    0.009       1 
485840.000    22.6247147911   113.9157692946     38.523     11.433     -9.449   -0.028       1 
485841.000    22.6248170743   113.9156780281     38.473     11.229     -9.331   -0.093       1 
485842.000    22.6249182104   113.9155869649     38.370     11.175     -9.341   -0.120       1 
485843.000    22.6250183774   113.9154963488     38.296     11.021     -9.253   -0.019       1 
485844.000    22.6251177409   113.9154057913     38.258     11.007     -9.401   -0.123       1 
485845.000    22.6252195625   113.9153149083     38.169     11.478     -9.295   -0.101       1 
485846.000    22.6253242993   113.9152234954     38.066     11.667     -9.611   -0.095       1 
485847.000    22.6254304973   113.9151279664     37.974     11.945     -9.981   -0.104       1 
485848.000    22.6255406204   113.9150300054     37.853     12.436    -10.202   -0.113       1 
485849.000    22.6256545262   113.9149291040     37.720     12.796    -10.549   -0.124       1 
485850.000    22.6257723419   113.9148257242     37.592     13.220    -10.697   -0.139       1 
485851.000    22.6258921921   113.9147224903     37.445     13.345    -10.509   -0.150       1 
485852.000    22.6260141951   113.9146210544     37.273     13.654    -10.375   -0.192       1 
485853.000    22.6261388017   113.9145197852     37.092     13.914    -10.523   -0.199       1 
485854.000    22.6262653131   113.9144154464     36.897     14.111    -10.982   -0.189       1 
485855.000    22.6263936182   113.9143067627     36.699     14.327    -11.379   -0.222       1 
485856.000    22.6265243710   113.9141943821     36.467     14.629    -11.762   -0.213       1 
485857.000    22.6266576416   113.9140780047     36.236     14.886    -12.227   -0.258       1 
485858.000    22.6267925224   113.9139563046     35.977     15.026    -12.818   -0.261       1 
485859.000    22.6269295455   113.9138301957     35.717     15.346    -13.077   -0.305       1 
485860.000    22.6270705126   113.9137028580     35.438     15.845    -13.088   -0.276       1 
485861.000    22.6272165622   113.9135761934     35.147     16.428    -12.974   -0.287       1 
485862.000    22.6273665542   113.9134487563     34.853     16.750    -13.205   -0.294       1 
485863.000    22.6275194998   113.9133194205     34.545     17.104    -13.383   -0.308       1 
485864.000    22.6276747472   113.9131888693     34.254     17.203    -13.360   -0.285       1 
485865.000    22.6278299811   113.9130591655     33.949     17.216    -13.361   -0.296       1 
485866.000    22.6279858277   113.9129283847     33.647     17.358    -13.468   -0.280       1 
485867.000    22.6281435423   113.9127970895     33.390     17.591    -13.512   -0.207       1 
485868.000    22.6283032289   113.9126649467     33.180     17.762    -13.671   -0.186       1 
485869.000    22.6284644041   113.9125315199     33.011     17.948    -13.756   -0.130       1 
485870.000    22.6286273141   113.9123971930     32.887     18.124    -13.850   -0.075       1 
485871.000    22.6287921561   113.9122621181     32.820     18.346    -13.967   -0.059       1 
485872.000    22.6289586905   113.9121262136     32.820     18.532    -13.982    0.011       1 
485873.000    22.6291258512   113.9119913723     32.850     18.477    -13.670    0.101       1 
485874.000    22.6292934011   113.9118598714     32.965     18.648    -13.437    0.213       1 
485875.000    22.6294618281   113.9117295496     33.118     18.669    -13.330    0.189       1 
485876.000    22.6296306832   113.9116000127     33.322     18.688    -13.297    0.200       1 
485877.000    22.6297995946   113.9114713276     33.573     18.721    -13.186    0.262       1 
485878.000    22.6299689057   113.9113445203     33.879     18.823    -12.817    0.328       1 
485879.000    22.6301394808   113.9112215336     34.240     18.855    -12.432    0.411       1 
485880.000    22.6303087835   113.9111023139     34.637     18.628    -12.105    0.467       1 
485881.000    22.6304748211   113.9109864506     35.061     18.196    -11.654    0.461       1 
485882.000    22.6306382618   113.9108760575     35.538     17.978    -11.121    0.462       1 
485883.000    22.6307991989   113.9107689541     36.038     17.608    -10.983    0.522       1 
485884.000    22.6309563890   113.9106633629     36.578     17.216    -10.671    0.522       1 
485885.000    22.6311111503   113.9105627221     37.094     17.091    -10.057    0.496       1 
485886.000    22.6312645185   113.9104663513     37.596     16.867     -9.801    0.492       1 
485887.000    22.6314156389   113.9103723107     38.105     16.617     -9.541    0.541       1 
485888.000    22.6315650836   113.9102805307     38.602     16.465     -9.280    0.456       1 
485889.000    22.6317137771   113.9101917275     39.078     16.432     -8.950    0.466       1 
485890.000    22.6318620019   113.9101065026     39.553     16.329     -8.726    0.469       1 
485891.000    22.6320084787   113.9100224388     40.032     16.111     -8.608    0.494       1 
485892.000    22.6321528388   113.9099383642     40.491     15.918     -8.566    0.465       1 
485893.000    22.6322961755   113.9098558030     40.913     15.777     -8.378    0.316       1 
485894.000    22.6324387630   113.9097754138     41.389     15.718     -8.202    0.511       1 
485895.000    22.6325805502   113.9096969559     41.886     15.659     -7.941    0.482       1 
485896.000    22.6327217137   113.9096208044     42.335     15.595     -7.686    0.458       1 
485897.000    22.6328624994   113.9095467866     42.780     15.585     -7.546    0.420       1 
485898.000    22.6330035943   113.9094732144     43.184     15.650     -7.536    0.386       1 
485899.000    22.6331452894   113.9093998038     43.590     15.731     -7.538    0.385       1 
485900.000    22.6332879560   113.9093269968     43.962     15.901     -7.359    0.355       1 
485901.000    22.6334323841   113.9092560042     44.315     16.053     -7.309    0.360       1 
485902.000    22.6335779156   113.9091850427     44.666     16.184     -7.244    0.345       1 
485903.000    22.6337241269   113.9091147266     44.990     16.089     -7.075    0.315       1 
485904.000    22.6338684328   113.9090470883     45.287     15.944     -6.769    0.266       1 
485905.000    22.6340127590   113.9089821666     45.552     15.991     -6.654    0.239       1 
485906.000    22.6341576977   113.9089178688     45.796     16.112     -6.553    0.234       1 
485907.000    22.6343036591   113.9088544154     46.033     16.236     -6.475    0.245       1 
485908.000    22.6344507942   113.9087913216     46.260     16.338     -6.577    0.212       1 
485909.000    22.6345988965   113.9087274209     46.472     16.466     -6.580    0.212       1 
485910.000    22.6347483163   113.9086635492     46.663     16.625     -6.506    0.160       1 
485911.000    22.6348997201   113.9086012908     46.839     16.880     -6.333    0.144       1 
485912.000    22.6350534990   113.9085402997     46.983     17.184     -6.244    0.116       1 
485913.000    22.6352099714   113.9084797417     47.095     17.481     -6.191    0.116       1 
485914.000    22.6353690781   113.9084195734     47.219     17.770     -6.146    0.087       1 
485915.000    22.6355292066   113.9083604390     47.313     17.639     -5.971    0.073       1 
485916.000    22.6356890511   113.9083030644     47.379     17.788     -5.824    0.074       1 
485917.000    22.6358506667   113.9082462234     47.414     17.995     -5.874    0.030       1 
485918.000    22.6360139835   113.9081891198     47.438     18.196     -5.864    0.009       1 
485919.000    22.6361792464   113.9081322755     47.434     18.434     -5.791    0.006       1 
485920.000    22.6363470351   113.9080764505     47.420     18.741     -5.692   -0.033       1 
485921.000    22.6365175685   113.9080208822     47.372     19.047     -5.725   -0.067       1 
485922.000    22.6366907920   113.9079651258     47.302     19.341     -5.734   -0.079       1 
485923.000    22.6368667451   113.9079095452     47.218     19.648     -5.659   -0.114       1 
485924.000    22.6370459464   113.9078562854     47.092     20.054     -5.276   -0.127       1 
485925.000    22.6372284518   113.9078052001     46.934     20.378     -5.184   -0.170       1 
485926.000    22.6374140358   113.9077553566     46.756     20.752     -5.029   -0.189       1 
485927.000    22.6376024045   113.9077058157     46.535     20.992     -5.118   -0.207       1 
485928.000    22.6377932505   113.9076561573     46.314     21.274     -5.067   -0.215       1 
485929.000    22.6379867912   113.9076069838     46.109     21.598     -5.003   -0.237       1 
485930.000    22.6381834512   113.9075589787     45.870     21.972     -4.831   -0.217       1 
485931.000    22.6383829750   113.9075112657     45.622     22.228     -4.951   -0.294       1 
485932.000    22.6385853740   113.9074637865     45.363     22.574     -4.851   -0.250       1 
485933.000    22.6387907507   113.9074169723     45.125     22.902     -4.739   -0.250       1 
485934.000    22.6389987705   113.9073708253     44.892     23.158     -4.671   -0.195       1 
485935.000    22.6392090926   113.9073255327     44.654     23.456     -4.569   -0.261       1 
485936.000    22.6394215998   113.9072800751     44.413     23.602     -4.933   -0.224       1 
485937.000    22.6396359971   113.9072325490     44.157     23.876     -4.707   -0.260       1 
485938.000    22.6398530442   113.9071870097     43.925     24.125     -4.718   -0.212       1 
485939.000    22.6400719527   113.9071405439     43.707     24.333     -4.847   -0.245       1 
485940.000    22.6402927808   113.9070934593     43.472     24.530     -4.837   -0.221       1 
485941.000    22.6405134226   113.9070473097     43.248     24.338     -4.639   -0.234       1 
485942.000    22.6407328224   113.9070018874     43.059     24.265     -4.722   -0.171       1 
485943.000    22.6409518347   113.9069554378     42.910     24.227     -4.766   -0.125       1 
485944.000    22.6411707028   113.9069095447     42.793     24.216     -4.681   -0.092       1 
485945.000    22.6413891521   113.9068636257     42.734     24.161     -4.778   -0.061       1 
485946.000    22.6416069514   113.9068167658     42.703     24.052     -4.914   -0.026       1 
485947.000    22.6418241726   113.9067697242     42.717     24.000     -4.874    0.026       1 
485948.000    22.6420397079   113.9067230283     42.757     23.695     -4.796    0.057       1 
485949.000    22.6422529066   113.9066766230     42.843     23.527     -4.759    0.091       1 
485950.000    22.6424649963   113.9066305789     42.948     23.445     -4.674    0.089       1 
485951.000    22.6426764561   113.9065854707     43.068     23.370     -4.604    0.164       1 
485952.000    22.6428872695   113.9065406274     43.208     23.347     -4.594    0.093       1 
485953.000    22.6430978494   113.9064957467     43.337     23.310     -4.630    0.144       1 
485954.000    22.6433085133   113.9064510968     43.444     23.342     -4.548    0.099       1 
485955.000    22.6435195182   113.9064070112     43.516     23.393     -4.497    0.066       1 
485956.000    22.6437308869   113.9063626998     43.554     23.418     -4.628    0.028       1 
485957.000    22.6439424878   113.9063170546     43.567     23.443     -4.803   -0.024       1 
485958.000    22.6441543340   113.9062695896     43.540     23.469     -4.937   -0.057       1 
485959.000    22.6443669424   113.9062230554     43.466     23.623     -4.620   -0.104       1 
485960.000    22.6445806075   113.9061783187     43.363     23.696     -4.634   -0.125       1 
485961.000    22.6447950109   113.9061329583     43.214     23.785     -4.715   -0.172       1 
485962.000    22.6450101509   113.9060867762     43.033     23.861     -4.801   -0.206       1 
485963.000    22.6452262265   113.9060404484     42.814     23.967     -4.796   -0.234       1 
485964.000    22.6454435161   113.9059945793     42.558     24.119     -4.719   -0.294       1 
485965.000    22.6456621358   113.9059493441     42.266     24.275     -4.676   -0.335       1 
485966.000    22.6458821818   113.9059041324     41.904     24.459     -4.652   -0.337       1 
485967.000    22.6461036365   113.9058576431     41.560     24.604     -4.848   -0.278       1 
485968.000    22.6463263900   113.9058093081     41.241     24.733     -5.033   -0.327       1 
485969.000    22.6465505216   113.9057598260     40.904     24.882     -5.102   -0.334       1 
485970.000    22.6467741840   113.9057096228     40.583     24.651     -5.232   -0.328       1 
485971.000    22.6469957368   113.9056581787     40.239     24.386     -5.403   -0.308       1 
485972.000    22.6472147277   113.9056049113     39.920     24.106     -5.608   -0.325       1 
485973.000    22.6474305650   113.9055483462     39.577     23.733     -6.001   -0.376       1 
485974.000    22.6476428227   113.9054879428     39.235     23.284     -6.379   -0.226       1 
485975.000    22.6478515227   113.9054237702     38.913     22.884     -6.776   -0.302       1 
485976.000    22.6480563261   113.9053555604     38.630     22.518     -7.181   -0.346       1 
485977.000    22.6482576164   113.9052844153     38.302     22.101     -7.472   -0.334       1 
485978.000    22.6484554644   113.9052102035     37.974     21.720     -7.771   -0.303       1 
485979.000    22.6486506622   113.9051331768     37.681     21.567     -8.027   -0.312       1 
485980.000    22.6488439651   113.9050535412     37.376     21.287     -8.319   -0.266       1 
485981.000    22.6490353004   113.9049702465     37.097     21.120     -8.747   -0.338       1 
485982.000    22.6492254050   113.9048832820     36.817     20.970     -9.165   -0.266       1 
485983.000    22.6494138349   113.9047919262     36.569     20.782     -9.640   -0.265       1 
485984.000    22.6496002707   113.9046955486     36.335     20.619    -10.087   -0.240       1 
485985.000    22.6497850911   113.9045948760     36.092     20.346    -10.582   -0.248       1 
485986.000    22.6499670580   113.9044907530     35.824     19.986    -10.858   -0.246       1 
485987.000    22.6501452272   113.9043841425     35.632     19.542    -11.022   -0.150       1 
485988.000    22.6503198003   113.9042767361     35.468     19.162    -11.050   -0.200       1 
485989.000    22.6504907008   113.9041684372     35.300     18.686    -11.255   -0.164       1 
485990.000    22.6506572912   113.9040582714     35.159     18.237    -11.390   -0.145       1 
485991.000    22.6508200407   113.9039469046     35.023     17.841    -11.363   -0.277       1 
485992.000    22.6509789800   113.9038342251     34.861     17.373    -11.683   -0.243       1 
485993.000    22.6511338509   113.9037190870     34.729     16.974    -11.950   -0.060       1 
485994.000    22.6512846966   113.9036017713     34.661     16.490    -12.156   -0.062       1 
485995.000    22.6514314426   113.9034825123     34.575     16.062    -12.346   -0.088       1 
485996.000    22.6515747383   113.9033622683     34.499     15.705    -12.395   -0.087       1 
485997.000    22.6517124692   113.9032431398     34.429     14.604    -11.920   -0.081       1 
485998.000    22.6518391826   113.9031304056     34.370     13.548    -11.209   -0.062       1 
485999.000    22.6519581251   113.9030284984     34.347     12.566     -9.965   -0.029       1 
486000.000    22.6520664612   113.9029349944     34.337     11.378     -9.401   -0.058       1 
486001.000    22.6521659812   113.9028446274     34.296     10.822     -9.249   -0.034       1 
486002.000    22.6522630404   113.9027542637     34.246     10.736     -9.375   -0.017       1 
486003.000    22.6523606594   113.9026617124     34.235     10.903     -9.697    0.008       1 
486004.000    22.6524588829   113.9025642705     34.216     10.875    -10.385   -0.022       1 
486005.000    22.6525566652   113.9024608400     34.192     10.719    -10.820   -0.026       1 
486006.000    22.6526536080   113.9023562754     34.154     10.811    -10.658   -0.041       1 
486007.000    22.6527491318   113.9022502981     34.104     10.416    -11.217   -0.036       1 
486008.000    22.6528415210   113.9021409441     34.039     10.158    -11.164   -0.080       1 
486009.000    22.6529328795   113.9020317027     34.000     10.181    -11.338   -0.070       1 
486010.000    22.6530256070   113.9019192960     33.959     10.428    -11.755   -0.021       1 
486011.000    22.6531201118   113.9018031859     33.910     10.410    -12.005   -0.061       1 
486012.000    22.6532124983   113.9016858758     33.853     10.130    -12.219   -0.050       1 
486013.000    22.6533037289   113.9015652716     33.791     10.140    -12.517   -0.060       1 
486014.000    22.6533960073   113.9014420858     33.720     10.262    -12.847   -0.076       1 
486015.000    22.6534892528   113.9013162615     33.652     10.369    -13.084   -0.068       1 
486016.000    22.6535827725   113.9011874494     33.586     10.340    -13.418   -0.078       1 
486017.000    22.6536753264   113.9010558404     33.489     10.101    -13.605   -0.085       1 
