
   GPSTime         Latitude        Longitude      H-Ell      Vel-N      Vel-E    Vel-U       Q  
     (sec)            (Deg)            (Deg)        (m)      (m/s)      (m/s)    (m/s)          
388582.000    22.5774241625   113.8674003663      0.914      4.199     -4.980    0.014       1 
388583.000    22.5774624803   113.8673514916      0.929      4.297     -5.073    0.012       1 
388584.000    22.5775010776   113.8673025769      0.948      4.243     -4.975    0.027       1 
388585.000    22.5775392613   113.8672542521      0.970      4.238     -5.029    0.050       1 
388586.000    22.5775788007   113.8672043467      0.990      4.519     -5.306    0.042       1 
388587.000    22.5776209852   113.8671512732      1.009      4.765     -5.529    0.021       1 
388588.000    22.5776638117   113.8670975647      1.028      4.736     -5.503    0.033       1 
388589.000    22.5777072605   113.8670433365      1.045      4.871     -5.635    0.041       1 
388590.000    22.5777512134   113.8669887086      1.065      4.820     -5.528    0.052       1 
388591.000    22.5777940055   113.8669352820      1.097      4.663     -5.449    0.045       1 
388592.000    22.5778344179   113.8668842812      1.136      4.287     -5.012    0.067       1 
388593.000    22.5778720867   113.8668362378      1.166      4.110     -4.853    0.021       1 
388594.000    22.5779084646   113.8667895067      1.185      3.935     -4.689    0.045       1 
388595.000    22.5779431626   113.8667448081      1.203      3.799     -4.546    0.025       1 
388596.000    22.5779775650   113.8667011723      1.218      3.811     -4.438    0.001       1 
388597.000    22.5780120963   113.8666583364      1.228      3.794     -4.341    0.034       1 
388598.000    22.5780466513   113.8666163760      1.249      3.851     -4.308    0.034       1 
388599.000    22.5780817975   113.8665736977      1.272      3.923     -4.489    0.061       1 
388600.000    22.5781175957   113.8665296827      1.290      4.021     -4.590    0.012       1 
388601.000    22.5781543811   113.8664843448      1.297      4.148     -4.749    0.009       1 
388602.000    22.5781926209   113.8664374850      1.306      4.329     -4.930   -0.015       1 
388603.000    22.5782326436   113.8663883935      1.322      4.505     -5.131    0.025       1 
388604.000    22.5782728236   113.8663382537      1.326      4.458     -5.212    0.023       1 
388605.000    22.5783133285   113.8662868043      1.330      4.524     -5.455    0.017       1 
388606.000    22.5783545878   113.8662333381      1.335      4.635     -5.626    0.026       1 
388607.000    22.5783969969   113.8661776315      1.340      4.789     -5.832   -0.015       1 
388608.000    22.5784414645   113.8661200629      1.326      5.043     -5.992   -0.027       1 
388609.000    22.5784884179   113.8660607117      1.289      5.309     -6.217   -0.036       1 
388610.000    22.5785372505   113.8659992723      1.274      5.456     -6.351    0.024       0 
388611.000    22.5785861735   113.8659372647      1.256      5.407     -6.426   -0.002       0 
388612.000    22.5786358487   113.8658749110      1.240      5.504     -6.387   -0.017       0 
388613.000    22.5786855406   113.8658135536      1.221      5.485     -6.272   -0.036       0 
388614.000    22.5787350255   113.8657530385      1.193      5.445     -6.146   -0.047       1 
388615.000    22.5787838542   113.8656939925      1.156      5.324     -6.021   -0.002       1 
388616.000    22.5788304348   113.8656373691      1.125      5.040     -5.703   -0.026       1 
388617.000    22.5788750637   113.8655829574      1.096      4.789     -5.440    0.005       1 
388618.000    22.5789168865   113.8655322246      1.072      4.483     -5.029   -0.019       1 
388619.000    22.5789569263   113.8654839852      1.047      4.397     -4.881   -0.022       1 
388620.000    22.5789964239   113.8654367312      1.023      4.333     -4.810   -0.005       1 
388621.000    22.5790347629   113.8653912657      0.997      4.162     -4.529    0.000       1 
388622.000    22.5790715516   113.8653480577      0.979      3.975     -4.343   -0.008       1 
388623.000    22.5791068995   113.8653069464      0.968      3.830     -4.134   -0.018       1 
388624.000    22.5791409111   113.8652676937      0.959      3.691     -3.928    0.015       1 
388625.000    22.5791735412   113.8652302426      0.958      3.521     -3.760    0.006       1 
388626.000    22.5792032283   113.8651961869      0.957      3.086     -3.286    0.008       1 
388627.000    22.5792296040   113.8651659853      0.957      2.815     -2.990   -0.020       1 
388628.000    22.5792539787   113.8651373458      0.956      2.661     -2.959   -0.002       1 
388629.000    22.5792781580   113.8651070048      0.964      2.876     -3.443    0.017       1 
388630.000    22.5793049516   113.8650698275      0.987      3.160     -4.306    0.040       1 
388631.000    22.5793348841   113.8650250700      1.020      3.517     -4.929    0.034       1 
388632.000    22.5793681353   113.8649749909      1.059      3.884     -5.268    0.049       1 
388633.000    22.5794067480   113.8649219164      1.102      4.503     -5.514    0.048       1 
388634.000    22.5794484555   113.8648695918      1.153      4.543     -5.122    0.082       1 
388635.000    22.5794902623   113.8648213821      1.208      4.560     -4.780    0.063       1 
388636.000    22.5795317611   113.8647752572      1.261      4.635     -4.669    0.051       1 
388637.000    22.5795756949   113.8647278593      1.314      5.092     -5.083    0.047       1 
388638.000    22.5796222049   113.8646786627      1.363      5.100     -4.954    0.046       1 
388639.000    22.5796671892   113.8646311927      1.415      4.857     -4.828    0.043       1 
388640.000    22.5797095286   113.8645862343      1.468      4.506     -4.445    0.050       0 
388641.000    22.5797486932   113.8645450240      1.512      4.189     -4.078    0.067       0 
388642.000    22.5797855461   113.8645067378      1.565      3.946     -3.782    0.057       1 
388643.000    22.5798198097   113.8644714065      1.614      3.643     -3.466    0.047       1 
388644.000    22.5798511247   113.8644388568      1.659      3.322     -3.195    0.039       1 
388645.000    22.5798797520   113.8644091012      1.706      3.043     -2.909    0.045       1 
388646.000    22.5799045456   113.8643829549      1.742      2.504     -2.520    0.055       1 
388647.000    22.5799247554   113.8643610357      1.762      1.896     -1.956    0.010       1 
388648.000    22.5799402866   113.8643434113      1.784      1.588     -1.742    0.034       1 
388649.000    22.5799524756   113.8643281484      1.803      1.253     -1.513    0.018       1 
388650.000    22.5799622635   113.8643148171      1.821      0.984     -1.238    0.023       1 
388651.000    22.5799695261   113.8643059938      1.834      0.549     -0.514    0.012       1 
388652.000    22.5799727350   113.8643028341      1.840      0.094     -0.084    0.005       1 
388653.000    22.5799728235   113.8643027515      1.842     -0.001      0.002    0.013       1 
388654.000    22.5799728370   113.8643027426      1.843      0.000      0.000    0.008       1 
388655.000    22.5799728395   113.8643027335      1.844      0.001      0.006    0.018       1 
388656.000    22.5799729425   113.8643026207      1.847      0.053     -0.051    0.015       1 
388657.000    22.5799748888   113.8643002543      1.853      0.422     -0.509    0.013       1 
388658.000    22.5799798648   113.8642926123      1.866      0.908     -1.220    0.008       1 
388659.000    22.5799893831   113.8642790966      1.882      1.203     -1.324    0.034       1 
388660.000    22.5800034389   113.8642640956      1.910      1.655     -1.563    0.042       1 
388661.000    22.5800216398   113.8642467177      1.938      2.133     -1.811    0.039       1 
388662.000    22.5800428456   113.8642276272      1.963      2.332     -1.930   -0.009       1 
388663.000    22.5800638712   113.8642093662      1.983      2.271     -1.784    0.024       1 
388664.000    22.5800841939   113.8641917959      2.006      2.229     -1.769    0.014       1 
388665.000    22.5801052638   113.8641734808      2.034      2.530     -2.038    0.034       1 
388666.000    22.5801298231   113.8641515533      2.062      2.947     -2.465    0.045       1 
388667.000    22.5801582131   113.8641251408      2.098      3.409     -3.035    0.050       1 
388668.000    22.5801896232   113.8640947549      2.137      3.451     -3.189    0.089       1 
388669.000    22.5802194903   113.8640646383      2.181      3.208     -3.108    0.056       1 
388670.000    22.5802471950   113.8640359772      2.223      2.934     -2.737    0.050       1 
388671.000    22.5802724654   113.8640102167      2.260      2.675     -2.504    0.035       1 
388672.000    22.5802958837   113.8639869778      2.293      2.485     -2.258    0.025       1 
388673.000    22.5803176046   113.8639658683      2.327      2.305     -2.095    0.031       1 
388674.000    22.5803372457   113.8639462345      2.359      2.080     -1.964    0.050       1 
388675.000    22.5803550740   113.8639279720      2.386      1.902     -1.809    0.025       1 
388676.000    22.5803709141   113.8639119173      2.407      1.594     -1.497    0.024       1 
388677.000    22.5803829772   113.8638995467      2.418      1.060     -1.011    0.026       1 
388678.000    22.5803900196   113.8638922000      2.426      0.522     -0.504    0.028       1 
388679.000    22.5803929707   113.8638890878      2.428      0.237     -0.232    0.000       1 
388680.000    22.5803949865   113.8638869328      2.427      0.205     -0.222    0.015       1 
388681.000    22.5803962292   113.8638855679      2.425      0.038     -0.022    0.004       1 
388682.000    22.5803962076   113.8638855466      2.421     -0.002     -0.000   -0.004       1 
388683.000    22.5803961882   113.8638855395      2.417     -0.001      0.004    0.014       1 
388684.000    22.5803961767   113.8638855367      2.413     -0.001     -0.000   -0.002       1 
388685.000    22.5803961741   113.8638855380      2.410      0.001      0.005    0.017       1 
388686.000    22.5803961759   113.8638855400      2.408      0.001      0.003    0.002       1 
388687.000    22.5803961760   113.8638855434      2.408     -0.003     -0.007    0.009       1 
388688.000    22.5803961723   113.8638855480      2.409     -0.000      0.003    0.018       1 
388689.000    22.5803961659   113.8638855540      2.411      0.001      0.003    0.006       1 
388690.000    22.5803961599   113.8638855535      2.413     -0.001     -0.000    0.012       1 
388691.000    22.5803961585   113.8638855558      2.416      0.001      0.004    0.011       1 
388692.000    22.5803961596   113.8638855552      2.419     -0.001     -0.001    0.009       1 
388693.000    22.5803961632   113.8638855576      2.421      0.001      0.003    0.009       1 
388694.000    22.5803961658   113.8638855553      2.423     -0.001      0.000    0.010       1 
388695.000    22.5803961623   113.8638855520      2.425      0.000      0.009    0.016       1 
388696.000    22.5803961577   113.8638855553      2.426     -0.000      0.001   -0.001       1 
388697.000    22.5803961530   113.8638855603      2.426     -0.000      0.003    0.013       1 
388698.000    22.5803961556   113.8638855727      2.425      0.001      0.003    0.004       1 
388699.000    22.5803961631   113.8638855897      2.424      0.000      0.002    0.008       1 
388700.000    22.5803961741   113.8638856131      2.423      0.002      0.006    0.012       1 
388701.000    22.5803961916   113.8638856409      2.421      0.003      0.003    0.001       1 
388702.000    22.5803962099   113.8638856664      2.419      0.002      0.003    0.014       1 
388703.000    22.5803962183   113.8638856776      2.418      0.001      0.004    0.001       1 
388704.000    22.5803962185   113.8638856707      2.418      0.001      0.000    0.014       1 
388705.000    22.5803962202   113.8638856562      2.419      0.001     -0.000    0.002       1 
388706.000    22.5803962244   113.8638856325      2.421     -0.000     -0.004    0.017       1 
388707.000    22.5803962320   113.8638856005      2.422      0.001     -0.005    0.003       1 
388708.000    22.5803962402   113.8638855698      2.424      0.001      0.002    0.017       1 
388709.000    22.5803962418   113.8638855498      2.424     -0.001     -0.004   -0.001       1 
388710.000    22.5803962422   113.8638855338      2.424     -0.000      0.002    0.014       1 
388711.000    22.5803962411   113.8638855268      2.422      0.001      0.003    0.001       1 
388712.000    22.5803962378   113.8638855254      2.421     -0.002     -0.004    0.008       1 
388713.000    22.5803962381   113.8638855269      2.419      0.001      0.005    0.011       1 
388714.000    22.5803962395   113.8638855323      2.416     -0.002     -0.002   -0.000       1 
388715.000    22.5803962416   113.8638855391      2.414      0.001      0.005    0.012       1 
388716.000    22.5803962419   113.8638855533      2.411     -0.001      0.002    0.001       1 
388717.000    22.5803962367   113.8638855603      2.409      0.000      0.003    0.009       1 
388718.000    22.5803962340   113.8638855680      2.406     -0.002      0.000   -0.002       1 
388719.000    22.5803963144   113.8638854954      2.404      0.025     -0.017   -0.005       1 
388720.000    22.5803968006   113.8638850088      2.402      0.103     -0.100    0.008       1 
388721.000    22.5803996657   113.8638819687      2.407      0.677     -0.674    0.026       1 
388722.000    22.5804078147   113.8638731515      2.422      1.194     -1.223    0.027       1 
388723.000    22.5804213534   113.8638582790      2.444      1.804     -1.803   -0.014       1 
388724.000    22.5804394847   113.8638386021      2.474      2.195     -2.200    0.040       1 
388725.000    22.5804599813   113.8638166119      2.505      2.213     -2.205    0.047       1 
388726.000    22.5804798025   113.8637959971      2.519      2.130     -1.993    0.004       1 
388727.000    22.5804986644   113.8637771543      2.529      2.049     -1.867    0.015       1 
388728.000    22.5805180255   113.8637579938      2.549      2.288     -2.108    0.032       1 
388729.000    22.5805398363   113.8637365975      2.577      2.417     -2.175    0.041       1 
388730.000    22.5805619938   113.8637149059      2.616      2.457     -2.248    0.062       1 
388731.000    22.5805830468   113.8636935979      2.649      2.193     -2.126    0.058       1 
388732.000    22.5806014399   113.8636730433      2.674      2.030     -2.307    0.035       1 
388733.000    22.5806178785   113.8636494999      2.701      1.924     -2.881    0.039       1 
388734.000    22.5806313649   113.8636204146      2.734      1.632     -3.722    0.043       1 
388735.000    22.5806420464   113.8635866419      2.759      1.203     -3.914    0.064       1 
388736.000    22.5806484872   113.8635499540      2.782      0.709     -4.219    0.039       1 
388737.000    22.5806522099   113.8635118827      2.802      0.372     -4.108    0.035       1 
388738.000    22.5806524241   113.8634753632      2.813     -0.033     -4.101    0.027       1 
388739.000    22.5806469595   113.8634374248      2.799     -0.744     -4.948    0.012       1 
388740.000    22.5806313135   113.8633935769      2.773     -2.084     -5.389   -0.040       1 
388741.000    22.5806074219   113.8633490144      2.742     -2.898     -5.157   -0.007       1 
388742.000    22.5805755483   113.8633037899      2.709     -3.978     -5.305   -0.015       1 
388743.000    22.5805336313   113.8632591855      2.674     -5.138     -5.080    0.031       1 
388744.000    22.5804831834   113.8632135870      2.661     -5.949     -4.943   -0.036       1 
388745.000    22.5804276429   113.8631650783      2.595     -6.246     -5.091    0.083       1 
388746.000    22.5803696704   113.8631170687      2.571     -6.649     -5.070   -0.023       1 
388747.000    22.5803074769   113.8630673470      2.519     -7.138     -5.297   -0.065       1 
388748.000    22.5802420550   113.8630129744      2.437     -7.226     -5.667   -0.077       1 
388749.000    22.5801765528   113.8629545612      2.361     -7.356     -6.130   -0.035       1 
388750.000    22.5801090209   113.8628930821      2.285     -7.549     -6.369   -0.044       1 
388751.000    22.5800411840   113.8628298554      2.230     -7.480     -6.504   -0.093       1 
388752.000    22.5799737710   113.8627655322      2.171     -7.527     -6.693   -0.003       1 
388753.000    22.5799057551   113.8627001078      2.116     -7.503     -6.707   -0.057       1 
388754.000    22.5798381695   113.8626355626      2.065     -7.424     -6.578   -0.049       1 
388755.000    22.5797720967   113.8625736657      2.003     -7.182     -6.209   -0.052       1 
388756.000    22.5797089213   113.8625142870      1.951     -6.822     -5.938   -0.015       1 
388757.000    22.5796506179   113.8624588008      1.949     -6.053     -5.403   -0.009       1 
388758.000    22.5795993929   113.8624091403      1.948     -5.396     -4.792    0.030       1 
388759.000    22.5795534446   113.8623603199      1.948     -4.925     -4.791    0.010       1 
388760.000    22.5795090726   113.8623084553      1.968     -5.069     -5.510    0.050       1 
388761.000    22.5794617270   113.8622515303      1.976     -5.341     -5.976    0.018       1 
388762.000    22.5794138282   113.8621936181      1.988     -5.270     -5.920    0.036       1 
388763.000    22.5793656645   113.8621380351      1.989     -5.407     -5.763    0.005       1 
388764.000    22.5793157523   113.8620842857      1.994     -5.638     -5.639   -0.012       1 
388765.000    22.5792634546   113.8620310032      2.001     -5.897     -5.565    0.026       1 
388766.000    22.5792097019   113.8619769208      2.026     -6.013     -5.616    0.045       1 
388767.000    22.5791547150   113.8619219489      2.041     -6.163     -5.711    0.022       1 
388768.000    22.5790982525   113.8618661850      2.057     -6.340     -5.783    0.019       1 
388769.000    22.5790401202   113.8618093964      2.077     -6.541     -5.917    0.005       1 
388770.000    22.5789804912   113.8617522968      2.107     -6.597     -5.832    0.045       1 
388771.000    22.5789206545   113.8616958267      2.129     -6.690     -5.808    0.017       1 
388772.000    22.5788597044   113.8616389969      2.156     -6.796     -5.875    0.021       1 
388773.000    22.5787983093   113.8615818010      2.173     -6.805     -5.875    0.013       1 
388774.000    22.5787363903   113.8615245975      2.229     -6.938     -5.945    0.124       1 
388775.000    22.5786734070   113.8614661219      2.258     -7.015     -6.098    0.007       1 
388776.000    22.5786094116   113.8614056269      2.251     -7.150     -6.324   -0.001       1 
388777.000    22.5785440901   113.8613429916      2.228     -7.329     -6.530   -0.008       1 
388778.000    22.5784770159   113.8612789340      2.194     -7.505     -6.649   -0.067       1 
388779.000    22.5784094278   113.8612142799      2.170     -7.436     -6.582   -0.013       1 
388780.000    22.5783425784   113.8611505162      2.147     -7.332     -6.514    0.020       1 
388781.000    22.5782772240   113.8610882665      2.128     -7.173     -6.346   -0.059       1 
388782.000    22.5782124133   113.8610257595      2.087     -7.187     -6.475   -0.051       1 
388783.000    22.5781476105   113.8609633118      2.048     -7.141     -6.418   -0.002       1 
388784.000    22.5780845551   113.8609025465      2.011     -6.681     -5.985    0.011       1 
388785.000    22.5780264621   113.8608459187      1.981     -6.201     -5.621   -0.055       1 
