
   GPSTime         Latitude        Longitude      H-Ell      Vel-N      Vel-E    Vel-U       Q  
     (sec)            (Deg)            (Deg)        (m)      (m/s)      (m/s)    (m/s)          
388582.000    22.5774203520   113.8674101847      1.498      4.198     -4.987    0.017       1 
388583.000    22.5774586343   113.8673613037      1.511      4.301     -5.066    0.015       1 
388584.000    22.5774972050   113.8673123758      1.530      4.239     -4.981    0.024       1 
388585.000    22.5775353868   113.8672640567      1.551      4.233     -5.008    0.032       1 
388586.000    22.5775749127   113.8672141489      1.570      4.514     -5.304    0.033       1 
388587.000    22.5776170838   113.8671610691      1.590      4.763     -5.526    0.016       1 
388588.000    22.5776599007   113.8671073421      1.611      4.722     -5.534    0.023       1 
388589.000    22.5777033248   113.8670531121      1.627      4.858     -5.653    0.027       1 
388590.000    22.5777472539   113.8669984718      1.646      4.808     -5.539    0.034       1 
388591.000    22.5777900670   113.8669450586      1.678      4.660     -5.444    0.037       1 
388592.000    22.5778305096   113.8668940541      1.720      4.284     -5.002    0.057       1 
388593.000    22.5778682178   113.8668460213      1.751      4.111     -4.858    0.024       1 
388594.000    22.5779046475   113.8667993153      1.770      3.930     -4.678    0.030       1 
388595.000    22.5779393480   113.8667546194      1.788      3.809     -4.537    0.038       1 
388596.000    22.5779736708   113.8667109464      1.803      3.812     -4.444    0.006       1 
388597.000    22.5780081121   113.8666680649      1.813      3.785     -4.346    0.019       1 
388598.000    22.5780425742   113.8666260761      1.832      3.845     -4.308    0.024       1 
388599.000    22.5780777491   113.8665834148      1.855      3.923     -4.456    0.046       1 
388600.000    22.5781135952   113.8665394082      1.875      4.028     -4.587    0.022       1 
388601.000    22.5781503932   113.8664940777      1.882      4.154     -4.721    0.008       1 
388602.000    22.5781886166   113.8664472197      1.889      4.335     -4.929   -0.005       1 
388603.000    22.5782286635   113.8663981368      1.905      4.510     -5.127    0.032       1 
388604.000    22.5782689230   113.8663480256      1.911      4.453     -5.206    0.012       1 
388605.000    22.5783094945   113.8662965957      1.917      4.528     -5.430    0.012       1 
388606.000    22.5783508579   113.8662431857      1.920      4.637     -5.599    0.017       1 
388607.000    22.5783933038   113.8661875016      1.924      4.792     -5.836   -0.007       1 
388608.000    22.5784376999   113.8661298758      1.914      5.044     -5.984   -0.029       1 
388609.000    22.5784845661   113.8660704928      1.876      5.307     -6.219   -0.039       1 
388610.000    22.5785334045   113.8660090682      1.859      5.451     -6.350    0.013       0 
388611.000    22.5785823589   113.8659470616      1.843      5.402     -6.426   -0.012       0 
388612.000    22.5786319311   113.8658846583      1.828      5.499     -6.400   -0.020       0 
388613.000    22.5786815819   113.8658232662      1.811      5.483     -6.282   -0.034       0 
388614.000    22.5787310170   113.8657627264      1.784      5.450     -6.159   -0.032       1 
388615.000    22.5787798129   113.8657036632      1.747      5.323     -6.005   -0.011       1 
388616.000    22.5788264302   113.8656470565      1.716      5.042     -5.704   -0.022       1 
388617.000    22.5788710683   113.8655926458      1.687      4.786     -5.433   -0.004       1 
388618.000    22.5789128678   113.8655419130      1.662      4.471     -5.037   -0.036       1 
388619.000    22.5789528769   113.8654936654      1.636      4.392     -4.882   -0.032       1 
388620.000    22.5789923438   113.8654463908      1.612      4.331     -4.815   -0.006       1 
388621.000    22.5790306478   113.8654009108      1.586      4.154     -4.536   -0.010       1 
388622.000    22.5790673859   113.8653576850      1.566      3.978     -4.330   -0.009       1 
388623.000    22.5791026921   113.8653165600      1.554      3.830     -4.149   -0.012       1 
388624.000    22.5791366520   113.8652772775      1.546      3.685     -3.935    0.008       1 
388625.000    22.5791692583   113.8652398198      1.544      3.523     -3.751    0.005       1 
388626.000    22.5791989396   113.8652057568      1.544      3.085     -3.295    0.009       1 
388627.000    22.5792253095   113.8651755562      1.543      2.825     -2.971   -0.013       1 
388628.000    22.5792498038   113.8651469862      1.541      2.665     -2.944   -0.003       1 
388629.000    22.5792742515   113.8651168081      1.542      2.882     -3.397    0.007       1 
388630.000    22.5793015573   113.8650798769      1.560      3.163     -4.248    0.018       1 
388631.000    22.5793317541   113.8650352103      1.595      3.523     -4.906    0.034       1 
388632.000    22.5793649732   113.8649851177      1.635      3.867     -5.313    0.039       1 
388633.000    22.5794031233   113.8649318645      1.677      4.497     -5.553    0.056       1 
388634.000    22.5794444269   113.8648793416      1.731      4.530     -5.145    0.070       1 
388635.000    22.5794859173   113.8648309758      1.785      4.545     -4.806    0.048       1 
388636.000    22.5795272644   113.8647847824      1.836      4.623     -4.703    0.045       1 
388637.000    22.5795710754   113.8647373287      1.887      5.096     -5.098    0.061       1 
388638.000    22.5796175206   113.8646880695      1.941      5.102     -4.955    0.050       1 
388639.000    22.5796625180   113.8646406082      1.992      4.865     -4.812    0.049       1 
388640.000    22.5797048505   113.8645956275      2.049      4.509     -4.444    0.056       0 
388641.000    22.5797439605   113.8645543905      2.092      4.185     -4.080    0.059       0 
388642.000    22.5797807633   113.8645160819      2.143      3.942     -3.783    0.051       1 
388643.000    22.5798150010   113.8644807325      2.193      3.645     -3.461    0.047       1 
388644.000    22.5798463530   113.8644481991      2.238      3.327     -3.188    0.044       1 
388645.000    22.5798749763   113.8644184632      2.282      3.050     -2.889    0.048       1 
388646.000    22.5798998682   113.8643923635      2.320      2.508     -2.496    0.051       1 
388647.000    22.5799202192   113.8643704942      2.346      1.901     -1.923    0.002       1 
388648.000    22.5799358949   113.8643529764      2.362      1.593     -1.709    0.026       1 
388649.000    22.5799483966   113.8643378711      2.381      1.262     -1.477    0.017       1 
388650.000    22.5799584664   113.8643246720      2.400      0.985     -1.232    0.023       1 
388651.000    22.5799655593   113.8643157707      2.412      0.537     -0.552    0.008       1 
388652.000    22.5799685459   113.8643125037      2.418      0.091     -0.092    0.004       1 
388653.000    22.5799686179   113.8643124248      2.418     -0.004     -0.000    0.008       1 
388654.000    22.5799686291   113.8643124164      2.419     -0.001      0.003    0.005       1 
388655.000    22.5799686326   113.8643124079      2.420     -0.004      0.004    0.010       1 
388656.000    22.5799687225   113.8643122939      2.422      0.049     -0.049    0.006       1 
388657.000    22.5799706825   113.8643099444      2.426      0.428     -0.483    0.012       1 
388658.000    22.5799760719   113.8643025058      2.438      0.925     -1.171    0.015       1 
388659.000    22.5799857379   113.8642890300      2.458      1.183     -1.373    0.020       1 
388660.000    22.5799990552   113.8642736899      2.484      1.625     -1.653    0.031       1 
388661.000    22.5800166571   113.8642559691      2.511      2.111     -1.880    0.034       1 
388662.000    22.5800375579   113.8642366525      2.541      2.338     -1.958    0.016       1 
388663.000    22.5800583895   113.8642182510      2.562      2.261     -1.809    0.018       1 
388664.000    22.5800786844   113.8642006706      2.583      2.225     -1.778    0.011       1 
388665.000    22.5800997304   113.8641823562      2.608      2.530     -2.034    0.033       1 
388666.000    22.5801243853   113.8641604879      2.637      2.944     -2.446    0.029       1 
388667.000    22.5801529586   113.8641341978      2.674      3.412     -3.021    0.049       1 
388668.000    22.5801845542   113.8641039254      2.714      3.452     -3.146    0.069       1 
388669.000    22.5802145889   113.8640739184      2.758      3.214     -3.079    0.054       1 
388670.000    22.5802423645   113.8640452989      2.800      2.929     -2.746    0.043       1 
388671.000    22.5802675969   113.8640195041      2.839      2.673     -2.516    0.038       1 
388672.000    22.5802909054   113.8639962090      2.870      2.483     -2.269    0.027       1 
388673.000    22.5803125597   113.8639750680      2.902      2.310     -2.071    0.031       1 
388674.000    22.5803322934   113.8639554933      2.934      2.082     -1.943    0.043       1 
388675.000    22.5803502107   113.8639372886      2.961      1.911     -1.789    0.031       1 
388676.000    22.5803660447   113.8639212127      2.985      1.589     -1.514    0.023       1 
388677.000    22.5803781539   113.8639088569      2.998      1.059     -0.989    0.014       1 
388678.000    22.5803852128   113.8639015272      3.005      0.515     -0.506    0.016       1 
388679.000    22.5803881650   113.8638984283      3.005      0.237     -0.229   -0.001       1 
388680.000    22.5803901911   113.8638962860      3.003      0.201     -0.222    0.007       1 
388681.000    22.5803914416   113.8638949232      3.001      0.036     -0.020    0.001       1 
388682.000    22.5803914178   113.8638949045      2.996     -0.001      0.003   -0.003       1 
388683.000    22.5803913984   113.8638948978      2.992     -0.007      0.000    0.006       1 
388684.000    22.5803913870   113.8638948949      2.989     -0.000      0.004   -0.003       1 
388685.000    22.5803913845   113.8638948964      2.985     -0.005      0.002    0.008       1 
388686.000    22.5803913865   113.8638948983      2.983      0.001      0.006    0.000       1 
388687.000    22.5803913865   113.8638949019      2.983     -0.003     -0.001    0.006       1 
388688.000    22.5803913829   113.8638949064      2.984     -0.005      0.002    0.011       1 
388689.000    22.5803913766   113.8638949127      2.986      0.001      0.006    0.005       1 
388690.000    22.5803913705   113.8638949122      2.988     -0.003      0.002    0.007       1 
388691.000    22.5803913692   113.8638949145      2.991     -0.001      0.004    0.008       1 
388692.000    22.5803913698   113.8638949131      2.994     -0.002      0.000    0.006       1 
388693.000    22.5803913737   113.8638949159      2.997     -0.001      0.005    0.006       1 
388694.000    22.5803913766   113.8638949139      2.999     -0.003     -0.000    0.006       1 
388695.000    22.5803913734   113.8638949107      3.000     -0.004      0.006    0.009       1 
388696.000    22.5803913687   113.8638949142      3.001      0.001      0.005   -0.000       1 
388697.000    22.5803913638   113.8638949185      3.001     -0.003      0.004    0.007       1 
388698.000    22.5803913672   113.8638949315      3.001      0.000      0.006    0.001       1 
388699.000    22.5803913748   113.8638949488      2.999     -0.002      0.003    0.004       1 
388700.000    22.5803913857   113.8638949721      2.998     -0.002      0.005    0.006       1 
388701.000    22.5803914031   113.8638949998      2.996      0.003      0.007   -0.000       1 
388702.000    22.5803914220   113.8638950258      2.994     -0.001      0.006    0.007       1 
388703.000    22.5803914300   113.8638950370      2.993      0.000      0.002   -0.000       1 
388704.000    22.5803914296   113.8638950299      2.994     -0.002      0.001    0.009       1 
388705.000    22.5803914316   113.8638950158      2.994      0.002      0.003    0.002       1 
388706.000    22.5803914360   113.8638949922      2.996     -0.004     -0.004    0.010       1 
388707.000    22.5803914436   113.8638949603      2.998      0.001     -0.002    0.003       1 
388708.000    22.5803914518   113.8638949296      2.999     -0.004     -0.000    0.010       1 
388709.000    22.5803914534   113.8638949099      2.999      0.000      0.001   -0.001       1 
388710.000    22.5803914535   113.8638948938      2.999     -0.005     -0.001    0.007       1 
388711.000    22.5803914526   113.8638948870      2.997      0.001      0.007   -0.000       1 
388712.000    22.5803914489   113.8638948854      2.996     -0.004     -0.002    0.004       1 
388713.000    22.5803914497   113.8638948872      2.994     -0.003      0.004    0.005       1 
388714.000    22.5803914510   113.8638948927      2.991     -0.001      0.000   -0.001       1 
388715.000    22.5803914532   113.8638948996      2.989     -0.003      0.004    0.006       1 
388716.000    22.5803914535   113.8638949135      2.986     -0.002      0.002   -0.001       1 
388717.000    22.5803914476   113.8638949202      2.984     -0.002      0.005    0.004       1 
388718.000    22.5803914449   113.8638949283      2.981     -0.002      0.003   -0.002       1 
388719.000    22.5803915230   113.8638948564      2.978      0.022     -0.030   -0.005       1 
388720.000    22.5803920114   113.8638943746      2.976      0.099     -0.101    0.002       1 
388721.000    22.5803948854   113.8638913647      2.977      0.678     -0.669    0.026       1 
388722.000    22.5804031074   113.8638825895      2.992      1.200     -1.206    0.029       1 
388723.000    22.5804167305   113.8638677436      3.018      1.814     -1.810    0.008       1 
388724.000    22.5804348540   113.8638480590      3.049      2.192     -2.204    0.036       1 
388725.000    22.5804553232   113.8638260230      3.085      2.209     -2.209    0.042       1 
388726.000    22.5804750197   113.8638052832      3.107      2.130     -2.014    0.014       1 
388727.000    22.5804937208   113.8637863499      3.115      2.039     -1.888    0.008       1 
388728.000    22.5805130128   113.8637671803      3.130      2.282     -2.120    0.027       1 
388729.000    22.5805347885   113.8637457697      3.157      2.409     -2.186    0.032       1 
388730.000    22.5805569369   113.8637240942      3.192      2.450     -2.247    0.047       1 
388731.000    22.5805781374   113.8637028523      3.229      2.194     -2.091    0.043       1 
388732.000    22.5805969244   113.8636825352      3.254      2.049     -2.245    0.039       1 
388733.000    22.5806143767   113.8636594854      3.278      1.958     -2.727    0.027       1 
388734.000    22.5806295559   113.8636309199      3.310      1.681     -3.537    0.042       1 
388735.000    22.5806416662   113.8635972825      3.341      1.235     -3.743    0.039       1 
388736.000    22.5806494673   113.8635605573      3.363      0.738     -4.112    0.040       1 
388737.000    22.5806540871   113.8635223255      3.387      0.396     -4.009    0.031       1 
388738.000    22.5806552926   113.8634855318      3.400     -0.001     -3.949    0.012       1 
388739.000    22.5806513427   113.8634469462      3.386     -0.697     -4.709   -0.018       1 
388740.000    22.5806376343   113.8634017046      3.365     -2.026     -5.169   -0.039       1 
388741.000    22.5806147338   113.8633561270      3.331     -2.865     -5.016   -0.015       1 
388742.000    22.5805837092   113.8633097147      3.301     -3.927     -5.120   -0.011       1 
388743.000    22.5805425182   113.8632638358      3.259     -5.134     -5.001   -0.000       1 
388744.000    22.5804922804   113.8632176504      3.251     -5.935     -4.932   -0.016       1 
388745.000    22.5804368209   113.8631689840      3.181     -6.284     -5.033   -0.016       1 
388746.000    22.5803789712   113.8631206053      3.158     -6.640     -5.037   -0.023       1 
388747.000    22.5803167816   113.8630708101      3.111     -7.131     -5.297   -0.053       1 
388748.000    22.5802512595   113.8630167052      3.030     -7.232     -5.697   -0.074       1 
388749.000    22.5801856574   113.8629585541      2.955     -7.380     -6.114   -0.087       1 
388750.000    22.5801181143   113.8628971490      2.876     -7.548     -6.374   -0.039       1 
388751.000    22.5800502516   113.8628340529      2.816     -7.459     -6.509   -0.053       1 
388752.000    22.5799827839   113.8627698382      2.759     -7.531     -6.703   -0.004       1 
388753.000    22.5799147277   113.8627044734      2.707     -7.489     -6.708   -0.031       1 
388754.000    22.5798471533   113.8626398742      2.659     -7.420     -6.563   -0.049       1 
388755.000    22.5797810802   113.8625779135      2.601     -7.181     -6.214   -0.048       1 
388756.000    22.5797179021   113.8625185786      2.546     -6.828     -5.946   -0.024       1 
388757.000    22.5796595798   113.8624631583      2.543     -6.042     -5.390    0.005       1 
388758.000    22.5796083315   113.8624136114      2.537     -5.403     -4.840    0.040       1 
388759.000    22.5795621556   113.8623653122      2.535     -4.974     -4.871   -0.040       1 
388760.000    22.5795176336   113.8623138065      2.549     -5.084     -5.520    0.029       1 
388761.000    22.5794702260   113.8622569584      2.560     -5.339     -5.982    0.025       1 
388762.000    22.5794223640   113.8621990250      2.568     -5.267     -5.901    0.033       1 
388763.000    22.5793743191   113.8621431796      2.572     -5.387     -5.725    0.023       1 
388764.000    22.5793245313   113.8620891652      2.579     -5.627     -5.608   -0.007       1 
388765.000    22.5792723505   113.8620356317      2.585     -5.898     -5.544    0.015       1 
388766.000    22.5792186546   113.8619814737      2.605     -6.010     -5.594    0.040       1 
388767.000    22.5791636870   113.8619264965      2.618     -6.163     -5.719    0.025       1 
388768.000    22.5791072071   113.8618706819      2.641     -6.348     -5.779    0.002       1 
388769.000    22.5790491346   113.8618138053      2.657     -6.530     -5.920    0.026       1 
388770.000    22.5789895348   113.8617566123      2.689     -6.596     -5.826    0.045       1 
388771.000    22.5789297651   113.8617000281      2.707     -6.690     -5.818    0.021       1 
388772.000    22.5788688200   113.8616431768      2.735     -6.791     -5.879    0.032       1 
388773.000    22.5788073909   113.8615860341      2.754     -6.803     -5.889    0.024       1 
388774.000    22.5787455292   113.8615288303      2.799     -6.910     -5.981    0.192       1 
388775.000    22.5786824537   113.8614703602      2.845     -7.050     -6.087   -0.062       1 
388776.000    22.5786184393   113.8614099396      2.836     -7.160     -6.310   -0.025       1 
388777.000    22.5785530887   113.8613473555      2.814     -7.328     -6.536   -0.002       1 
388778.000    22.5784860114   113.8612832833      2.782     -7.480     -6.639   -0.025       1 
388779.000    22.5784184577   113.8612186184      2.753     -7.430     -6.584   -0.001       1 
388780.000    22.5783515960   113.8611548476      2.733     -7.325     -6.512    0.031       1 
388781.000    22.5782862204   113.8610926441      2.714     -7.172     -6.355   -0.053       1 
388782.000    22.5782213981   113.8610301545      2.674     -7.189     -6.461   -0.061       1 
388783.000    22.5781565829   113.8609676671      2.640     -7.141     -6.390   -0.015       1 
388784.000    22.5780935164   113.8609069125      2.605     -6.712     -5.990   -0.044       1 
388785.000    22.5780353824   113.8608503474      2.577     -6.178     -5.610   -0.018       1 
