
   GPSTime         Latitude        Longitude      H-Ell      Vel-N      Vel-E    Vel-U       Q  
     (sec)            (Deg)            (Deg)        (m)      (m/s)      (m/s)    (m/s)          
359907.000    22.6743910761   113.8007238845      1.460     -9.126     -0.241   -0.031       0 
359908.000    22.6743080200   113.8007215135      1.437     -9.265     -0.231   -0.014       0 
359909.000    22.6742236599   113.8007190755      1.438     -9.415     -0.247    0.032       1 
359910.000    22.6741376740   113.8007159483      1.425     -9.619     -0.336   -0.025       1 
359911.000    22.6740509983   113.8007119389      1.431     -9.524     -0.434    0.043       1 
359912.000    22.6739648463   113.8007072565      1.424     -9.584     -0.481   -0.014       1 
359913.000    22.6738782269   113.8007026594      1.442     -9.557     -0.479    0.019       1 
359914.000    22.6737918420   113.8006990251      1.453     -9.635     -0.359   -0.002       1 
359915.000    22.6737041703   113.8006967880      1.482     -9.825     -0.232    0.034       1 
359916.000    22.6736147498   113.8006950342      1.525     -9.979     -0.172    0.079       1 
359917.000    22.6735236170   113.8006928048      1.552    -10.201     -0.226    0.005       1 
359918.000    22.6734304822   113.8006901378      1.572    -10.331     -0.242    0.065       1 
359919.000    22.6733375513   113.8006867661      1.615    -10.222     -0.310    0.059       1 
359920.000    22.6732443582   113.8006830890      1.657    -10.450     -0.383    0.028       1 
359921.000    22.6731490558   113.8006809742      1.668    -10.703     -0.242    0.085       1 
359922.000    22.6730532839   113.8006817727      1.709    -10.582      0.084    0.072       1 
359923.000    22.6729580358   113.8006857121      1.759    -10.629      0.422    0.087       1 
359924.000    22.6728616236   113.8006918853      1.786    -10.786      0.648    0.027       1 
359925.000    22.6727634941   113.8006988749      1.811    -10.975      0.658    0.045       1 
359926.000    22.6726650190   113.8007055422      1.837    -10.818      0.710   -0.007       1 
359927.000    22.6725683784   113.8007129974      1.866    -10.666      0.709    0.108       1 
359928.000    22.6724729868   113.8007231444      1.926    -10.592      1.068    0.067       1 
359929.000    22.6723780105   113.8007367300      1.930    -10.556      1.444    0.034       1 
359930.000    22.6722835313   113.8007521900      1.952    -10.400      1.579    0.034       2 
359931.000    22.6721895150   113.8007688844      1.979    -10.489      1.743    0.029       2 
359932.000    22.6720942826   113.8007850152      2.008    -10.502      1.639    0.084       2 
359933.000    22.6720002149   113.8008002556      2.035    -10.344      1.537    0.024       2 
359934.000    22.6719069141   113.8008160195      2.029    -10.366      1.646    0.021       2 
359935.000    22.6718141243   113.8008324604      2.051    -10.183      1.698    0.019       2 
359936.000    22.6717230988   113.8008490974      2.060     -9.986      1.699    0.005       2 
359937.000    22.6716333867   113.8008642836      2.039     -9.799      1.508   -0.027       2 
359938.000    22.6715465942   113.8008777020      2.038     -9.365      1.418    0.048       2 
359939.000    22.6714642905   113.8008919826      2.038     -8.952      1.451   -0.047       2 
359940.000    22.6713851729   113.8009094988      2.030     -8.797      1.803   -0.033       2 
359941.000    22.6713063056   113.8009318434      1.986     -8.849      2.392   -0.021       2 
359942.000    22.6712260892   113.8009566561      2.004     -8.996      2.588    0.055       2 
359943.000    22.6711450414   113.8009848278      2.027     -9.096      2.951    0.022       2 
359944.000    22.6710626947   113.8010163509      2.003     -9.265      3.282   -0.011       2 
359945.000    22.6709788097   113.8010513598      1.986     -9.419      3.674   -0.024       2 
359946.000    22.6708930229   113.8010887771      1.950     -9.651      3.917   -0.073       2 
359947.000    22.6708052445   113.8011287850      1.919     -9.875      4.152    0.039       2 
359948.000    22.6707160156   113.8011719630      1.935    -10.006      4.526   -0.002       2 
359949.000    22.6706258820   113.8012195988      1.890    -10.114      4.967   -0.094       2 
359950.000    22.6705350461   113.8012717777      1.936    -10.152      5.454    0.018       2 
359951.000    22.6704440453   113.8013284849      1.952    -10.133      5.974    0.018       0 
359952.000    22.6703516500   113.8013872374      1.958    -10.322      6.098   -0.021       0 
359953.000    22.6702572481   113.8014462489      1.920    -10.460      6.092   -0.051       0 
359954.000    22.6701630151   113.8015050656      1.917    -10.484      6.063   -0.029       0 
359955.000    22.6700694304   113.8015653196      1.878    -10.285      6.154   -0.019       0 
359956.000    22.6699783336   113.8016261902      1.845     -9.947      6.171   -0.045       1 
359957.000    22.6698908570   113.8016865058      1.811     -9.488      6.106   -0.015       1 
359958.000    22.6698078004   113.8017458573      1.798     -8.975      6.008   -0.012       1 
359959.000    22.6697295279   113.8018043952      1.779     -8.476      5.917   -0.031       1 
359960.000    22.6696553450   113.8018617734      1.734     -8.038      5.755   -0.021       1 
359961.000    22.6695841795   113.8019164987      1.703     -7.653      5.515   -0.063       1 
359962.000    22.6695164956   113.8019692526      1.673     -7.327      5.325   -0.004       1 
359963.000    22.6694517884   113.8020208829      1.632     -7.118      5.235   -0.061       1 
359964.000    22.6693891228   113.8020736440      1.616     -6.892      5.433   -0.081       1 
359965.000    22.6693281435   113.8021271414      1.572     -6.676      5.463   -0.012       1 
359966.000    22.6692688946   113.8021805208      1.554     -6.419      5.520   -0.039       1 
359967.000    22.6692129925   113.8022336687      1.572     -6.065      5.327    0.019       1 
359968.000    22.6691614303   113.8022860278      1.564     -5.555      5.225    0.010       1 
359969.000    22.6691137259   113.8023365510      1.554     -5.136      4.984   -0.033       1 
359970.000    22.6690691004   113.8023848398      1.548     -4.812      4.854   -0.008       1 
359971.000    22.6690267097   113.8024304442      1.536     -4.654      4.398    0.082       1 
359972.000    22.6689867832   113.8024736602      1.513     -4.286      4.336   -0.020       1 
359973.000    22.6689483736   113.8025151514      1.486     -4.270      4.255   -0.021       1 
359974.000    22.6689094757   113.8025585477      1.432     -4.454      4.559   -0.043       1 
359975.000    22.6688692359   113.8026040895      1.403     -4.446      4.623   -0.017       1 
359976.000    22.6688304895   113.8026498825      1.353     -4.235      4.733   -0.039       1 
359977.000    22.6687916482   113.8026957248      1.338     -4.352      4.808   -0.031       1 
359978.000    22.6687525620   113.8027435606      1.304     -4.377      4.982   -0.034       1 
359979.000    22.6687129183   113.8027922017      1.293     -4.417      5.039   -0.032       1 
359980.000    22.6686729382   113.8028420018      1.283     -4.443      5.099   -0.021       1 
359981.000    22.6686339505   113.8028922842      1.257     -4.260      5.185   -0.019       1 
359982.000    22.6685950018   113.8029422986      1.232     -4.325      5.205   -0.012       1 
359983.000    22.6685550646   113.8029928761      1.205     -4.488      5.259   -0.070       1 
359984.000    22.6685142227   113.8030452936      1.174     -4.591      5.547    0.005       1 
359985.000    22.6684726897   113.8030999948      1.151     -4.674      5.658   -0.027       1 
359986.000    22.6684314175   113.8031558671      1.130     -4.577      5.768   -0.064       1 
359987.000    22.6683894616   113.8032134169      1.108     -4.709      6.017   -0.016       1 
359988.000    22.6683467024   113.8032700946      1.099     -4.637      5.728   -0.004       1 
359989.000    22.6683053965   113.8033252582      1.078     -4.549      5.635    0.003       1 
359990.000    22.6682645349   113.8033798971      1.048     -4.564      5.614    0.014       1 
359991.000    22.6682231880   113.8034350398      1.023     -4.606      5.714   -0.126       1 
359992.000    22.6681823605   113.8034906655      1.012     -4.519      5.692   -0.014       1 
359993.000    22.6681419218   113.8035467191      0.999     -4.461      5.794    0.018       1 
359994.000    22.6681021734   113.8036025880      0.984     -4.408      5.737    0.012       1 
359995.000    22.6680619348   113.8036599183      0.965     -4.553      6.003    0.014       1 
359996.000    22.6680201380   113.8037195789      0.949     -4.691      6.264   -0.023       1 
359997.000    22.6679765453   113.8037812428      0.933     -4.965      6.507   -0.018       1 
359998.000    22.6679296249   113.8038455520      0.910     -5.348      6.797   -0.000       1 
359999.000    22.6678796521   113.8039128328      0.882     -5.667      7.065   -0.056       1 
360000.000    22.6678273487   113.8039834428      0.853     -5.920      7.405    0.001       1 
360001.000    22.6677730820   113.8040571490      0.817     -6.137      7.753   -0.015       1 
360002.000    22.6677166419   113.8041338661      0.795     -6.368      8.057   -0.042       1 
360003.000    22.6676580514   113.8042136172      0.766     -6.603      8.374   -0.004       1 
360004.000    22.6675975961   113.8042966394      0.740     -6.806      8.716   -0.019       1 
360005.000    22.6675353495   113.8043814792      0.707     -6.879      8.670    0.042       1 
360006.000    22.6674725124   113.8044644294      0.714     -6.923      8.448    0.011       1 
360007.000    22.6674103027   113.8045456061      0.722     -6.797      8.233   -0.033       1 
360008.000    22.6673503220   113.8046240950      0.749     -6.495      7.907    0.023       1 
360009.000    22.6672932563   113.8046989116      0.776     -6.151      7.481    0.041       1 
360010.000    22.6672388584   113.8047698295      0.800     -5.905      7.154    0.022       1 
360011.000    22.6671858163   113.8048385149      0.838     -5.811      7.000    0.039       1 
360012.000    22.6671342925   113.8049051053      0.875     -5.590      6.710    0.066       1 
360013.000    22.6670849293   113.8049685034      0.897     -5.284      6.311    0.083       1 
360014.000    22.6670384000   113.8050277807      0.947     -4.965      5.872    0.055       1 
360015.000    22.6669948841   113.8050833524      0.986     -4.659      5.561    0.066       1 
360016.000    22.6669546505   113.8051358286      1.015     -4.324      5.226    0.018       1 
360017.000    22.6669173155   113.8051856519      1.057     -4.103      4.935    0.030       1 
360018.000    22.6668818236   113.8052348390      1.054     -3.893      5.049    0.019       1 
360019.000    22.6668471244   113.8052849868      1.086     -3.883      5.175    0.005       1 
360020.000    22.6668122860   113.8053351264      1.104     -3.784      5.114    0.037       1 
360021.000    22.6667781486   113.8053834722      1.119     -3.679      4.856    0.016       1 
360022.000    22.6667464546   113.8054280641      1.127     -3.307      4.347    0.019       1 
360023.000    22.6667182047   113.8054672956      1.154     -2.929      3.857   -0.009       1 
360024.000    22.6666936952   113.8055008984      1.173     -2.399      3.100   -0.021       1 
360025.000    22.6666747463   113.8055266365      1.192     -1.721      2.163    0.017       1 
360026.000    22.6666629975   113.8055426329      1.208     -0.895      1.126    0.017       1 
360027.000    22.6666586139   113.8055486413      1.214     -0.105      0.132    0.001       1 
360028.000    22.6666586043   113.8055486956      1.221      0.001      0.000    0.012       1 
360029.000    22.6666586057   113.8055487193      1.224      0.000      0.004    0.009       1 
360030.000    22.6666586095   113.8055487322      1.225     -0.000      0.001    0.004       1 
360031.000    22.6666586070   113.8055487398      1.225     -0.001      0.002    0.003       1 
360032.000    22.6666586038   113.8055487401      1.225     -0.006     -0.001    0.002       1 
360033.000    22.6666586017   113.8055487420      1.224      0.002      0.008    0.006       1 
360034.000    22.6666586040   113.8055487347      1.225     -0.003     -0.005    0.011       1 
360035.000    22.6666586112   113.8055487279      1.225      0.001      0.001    0.009       1 
360036.000    22.6666586136   113.8055487214      1.225     -0.002     -0.005    0.006       1 
360037.000    22.6666586118   113.8055487120      1.225      0.001      0.006    0.005       1 
360038.000    22.6666586085   113.8055487036      1.224      0.001      0.003    0.003       1 
360039.000    22.6666586087   113.8055486979      1.224     -0.002     -0.004    0.005       1 
360040.000    22.6666586037   113.8055486935      1.224     -0.002     -0.003    0.002       1 
360041.000    22.6666586003   113.8055486967      1.225     -0.001     -0.001    0.004       1 
360042.000    22.6666585992   113.8055487021      1.225      0.000      0.004    0.006       1 
360043.000    22.6666586015   113.8055487082      1.225     -0.001     -0.001    0.006       1 
360044.000    22.6666586001   113.8055487126      1.224     -0.001      0.001    0.003       1 
360045.000    22.6666585995   113.8055487165      1.224      0.001      0.005    0.004       1 
360046.000    22.6666586010   113.8055487162      1.224      0.001      0.005    0.008       1 
360047.000    22.6666586037   113.8055487145      1.223     -0.000     -0.001    0.008       1 
360048.000    22.6666586038   113.8055487121      1.222     -0.003     -0.002   -0.000       1 
360049.000    22.6666586045   113.8055487150      1.221     -0.001     -0.004    0.003       1 
360050.000    22.6666586082   113.8055487168      1.221      0.001     -0.000    0.006       1 
360051.000    22.6666586094   113.8055487179      1.220     -0.002     -0.005    0.004       1 
360052.000    22.6666586108   113.8055487147      1.220     -0.001     -0.004    0.003       1 
360053.000    22.6666586156   113.8055487139      1.220     -0.000      0.000    0.003       1 
360054.000    22.6666586207   113.8055487177      1.221     -0.000     -0.001    0.006       1 
360055.000    22.6666586246   113.8055487221      1.221     -0.003     -0.004    0.008       1 
360056.000    22.6666586267   113.8055487288      1.220      0.000      0.000    0.005       1 
360057.000    22.6666586282   113.8055487366      1.219     -0.000     -0.001    0.005       1 
360058.000    22.6666586300   113.8055487474      1.218      0.003      0.002    0.006       1 
360059.000    22.6666586330   113.8055487512      1.217     -0.002     -0.001    0.004       1 
360060.000    22.6666586331   113.8055487525      1.216     -0.002     -0.005    0.008       1 
360061.000    22.6666586340   113.8055487491      1.215      0.000     -0.002    0.005       1 
360062.000    22.6666586355   113.8055487464      1.215     -0.002     -0.004    0.007       1 
360063.000    22.6666586365   113.8055487439      1.216      0.001      0.002    0.005       1 
360064.000    22.6666586423   113.8055487417      1.216      0.000      0.001    0.004       1 
360065.000    22.6666586440   113.8055487367      1.216     -0.002     -0.005    0.010       1 
360066.000    22.6666586438   113.8055487307      1.215     -0.002     -0.004    0.008       1 
360067.000    22.6666586415   113.8055487288      1.215     -0.000      0.000    0.007       1 
360068.000    22.6666586435   113.8055487316      1.215      0.000      0.001    0.005       1 
360069.000    22.6666586454   113.8055487371      1.214     -0.001      0.003    0.006       1 
360070.000    22.6666586454   113.8055487448      1.213     -0.002     -0.004    0.006       1 
360071.000    22.6666586453   113.8055487493      1.213     -0.002     -0.001    0.006       1 
360072.000    22.6666586467   113.8055487561      1.212     -0.003     -0.001    0.006       1 
360073.000    22.6666586500   113.8055487599      1.211      0.000     -0.001    0.005       1 
360074.000    22.6666586515   113.8055487581      1.211      0.000      0.001    0.003       1 
360075.000    22.6666586494   113.8055487574      1.210      0.000      0.003    0.006       1 
360076.000    22.6666586457   113.8055487601      1.210     -0.001     -0.000    0.009       1 
360077.000    22.6666586378   113.8055487639      1.209     -0.002      0.001    0.006       1 
360078.000    22.6666586318   113.8055487617      1.209      0.000      0.001    0.004       1 
360079.000    22.6666586248   113.8055487584      1.209     -0.002     -0.004    0.004       1 
360080.000    22.6666586243   113.8055487597      1.209     -0.002     -0.002    0.006       1 
360081.000    22.6666586270   113.8055487630      1.209     -0.001     -0.001    0.005       1 
360082.000    22.6666586320   113.8055487677      1.209     -0.001     -0.002    0.007       1 
360083.000    22.6666586327   113.8055487707      1.209     -0.002     -0.002    0.001       1 
360084.000    22.6666586307   113.8055487716      1.209     -0.001     -0.002    0.007       1 
360085.000    22.6666586327   113.8055487705      1.209     -0.001     -0.005    0.005       1 
360086.000    22.6666586306   113.8055487663      1.209     -0.002     -0.004    0.006       1 
360087.000    22.6666586233   113.8055487603      1.208      0.001      0.003    0.008       1 
360088.000    22.6666586169   113.8055487544      1.207     -0.003     -0.003    0.004       1 
360089.000    22.6666586074   113.8055487448      1.206     -0.004     -0.006    0.005       1 
360090.000    22.6666586003   113.8055487402      1.205     -0.002     -0.004    0.005       1 
360091.000    22.6666585941   113.8055487334      1.204     -0.002     -0.005    0.000       1 
360092.000    22.6666585906   113.8055487266      1.202     -0.001      0.000    0.001       1 
360093.000    22.6666585910   113.8055487233      1.201      0.000      0.002    0.002       1 
360094.000    22.6666585926   113.8055487256      1.199     -0.001      0.002    0.008       1 
360095.000    22.6666585959   113.8055487375      1.197     -0.001     -0.001    0.007       1 
360096.000    22.6666585992   113.8055487489      1.197     -0.003      0.001    0.001       1 
360097.000    22.6666586017   113.8055487606      1.196      0.002      0.009    0.000       1 
360098.000    22.6666586064   113.8055487705      1.196     -0.002     -0.002    0.007       1 
360099.000    22.6666586077   113.8055487833      1.196     -0.002     -0.003    0.006       1 
360100.000    22.6666586099   113.8055487946      1.196     -0.000     -0.002    0.006       1 
360101.000    22.6666586157   113.8055488010      1.196      0.000     -0.001    0.003       1 
360102.000    22.6666586226   113.8055488083      1.196      0.000      0.001    0.003       1 
360103.000    22.6666586302   113.8055488129      1.196     -0.001     -0.001    0.006       1 
360104.000    22.6666586353   113.8055488132      1.196     -0.002     -0.005    0.006       1 
360105.000    22.6666586336   113.8055488104      1.195      0.001      0.004    0.008       1 
360106.000    22.6666586289   113.8055488024      1.196     -0.000      0.001    0.017       1 
360107.000    22.6666586255   113.8055487937      1.197     -0.002     -0.002    0.015       1 
360108.000    22.6666586216   113.8055487875      1.198     -0.000      0.006    0.011       1 
360109.000    22.6666586188   113.8055487855      1.198      0.002      0.007    0.011       1 
360110.000    22.6666586254   113.8055487879      1.200     -0.000     -0.000    0.013       1 
