
   GPSTime         Latitude        Longitude      H-Ell      Vel-N      Vel-E    Vel-U       Q  
     (sec)            (Deg)            (Deg)        (m)      (m/s)      (m/s)    (m/s)          
 60320.000    39.9979185932   116.6702141270     17.079      4.879      0.103   -0.014       1 
 60321.000    39.9979639861   116.6702156372     17.071      5.261      0.159   -0.002       1 
 60322.000    39.9980144193   116.6702180381     17.083      5.930      0.247    0.013       1 
 60323.000    39.9980696839   116.6702213647     17.117      6.293      0.326    0.031       1 
 60324.000    39.9981276385   116.6702255825     17.159      6.534      0.391    0.041       1 
 60325.000    39.9981866554   116.6702305924     17.195      6.519      0.470    0.030       1 
 60326.000    39.9982451486   116.6702363450     17.233      6.460      0.515    0.023       1 
 60327.000    39.9983031584   116.6702428581     17.269      6.438      0.601    0.035       1 
 60328.000    39.9983615271   116.6702498340     17.304      6.589      0.606    0.035       1 
 60329.000    39.9984225353   116.6702572588     17.342      6.968      0.648    0.041       1 
 60330.000    39.9984861341   116.6702654814     17.391      7.119      0.740    0.039       1 
 60331.000    39.9985501756   116.6702744081     17.443      7.124      0.780    0.049       1 
 60332.000    39.9986145312   116.6702841899     17.488      7.166      0.904    0.061       1 
 60333.000    39.9986789366   116.6702950853     17.531      7.095      0.968    0.031       1 
 60334.000    39.9987419282   116.6703067545     17.575      6.897      1.004    0.048       1 
 60335.000    39.9988030122   116.6703188703     17.627      6.668      1.054    0.049       1 
 60336.000    39.9988619901   116.6703314375     17.678      6.450      1.094    0.054       1 
 60337.000    39.9989196224   116.6703444417     17.723      6.399      1.154    0.046       1 
 60338.000    39.9989784918   116.6703589829     17.761      6.732      1.358    0.031       1 
 60339.000    39.9990402354   116.6703761266     17.792      6.939      1.530    0.022       1 
 60340.000    39.9991038456   116.6703943371     17.830      7.201      1.577    0.045       1 
 60341.000    39.9991686445   116.6704128310     17.886      7.118      1.568    0.060       1 
 60342.000    39.9992318710   116.6704306727     17.941      6.916      1.498    0.063       1 
 60343.000    39.9992939062   116.6704483819     17.993      6.860      1.543    0.046       1 
 60344.000    39.9993570344   116.6704664265     18.059      7.322      1.579    0.057       1 
 60345.000    39.9994242632   116.6704851138     18.136      7.522      1.580    0.078       1 
 60346.000    39.9994918486   116.6705037964     18.211      7.429      1.626    0.070       1 
 60347.000    39.9995582128   116.6705227946     18.275      7.302      1.646    0.054       1 
 60348.000    39.9996231232   116.6705421282     18.334      7.105      1.655    0.061       1 
 60349.000    39.9996858814   116.6705615675     18.394      6.891      1.686    0.038       1 
 60350.000    39.9997487367   116.6705817584     18.444      7.114      1.773    0.062       1 
 60351.000    39.9998138313   116.6706031641     18.502      7.280      1.856    0.052       1 
 60352.000    39.9998811156   116.6706259602     18.570      7.756      2.072    0.071       1 
 60353.000    39.9999524958   116.6706511315     18.622      8.082      2.210    0.048       1 
 60354.000    40.0000271456   116.6706776113     18.686      8.379      2.278    0.070       1 
 60355.000    40.0001032318   116.6707044451     18.753      8.551      2.298    0.075       1 
 60356.000    40.0001827004   116.6707311577     18.811      9.158      2.242    0.056       1 
 60357.000    40.0002685846   116.6707567183     18.880      9.922      2.154    0.071       1 
 60358.000    40.0003613731   116.6707829570     18.940     10.658      2.342    0.075       1 
 60359.000    40.0004600911   116.6708114559     19.017     11.242      2.493    0.063       1 
 60360.000    40.0005637205   116.6708413589     19.073     11.764      2.599    0.068       1 
 60361.000    40.0006702707   116.6708709289     19.136     11.863      2.459    0.053       1 
 60362.000    40.0007783183   116.6708991728     19.173     12.161      2.398    0.031       1 
 60363.000    40.0008884177   116.6709265242     19.207     12.252      2.270    0.047       1 
 60364.000    40.0009993728   116.6709517609     19.238     12.360      2.030    0.018       1 
 60365.000    40.0011119476   116.6709741130     19.260     12.723      1.811    0.025       1 
 60366.000    40.0012280787   116.6709948218     19.277     12.952      1.718    0.023       1 
 60367.000    40.0013439284   116.6710139377     19.303     12.792      1.536    0.015       1 
 60368.000    40.0014593607   116.6710310193     19.307     12.926      1.389    0.001       1 
 60369.000    40.0015765478   116.6710461341     19.308     13.116      1.177   -0.013       1 
 60370.000    40.0016963532   116.6710593133     19.299     13.478      1.101   -0.005       1 
 60371.000    40.0018196320   116.6710725192     19.281     13.916      1.147   -0.005       1 
 60372.000    40.0019471871   116.6710861356     19.258     14.399      1.149   -0.032       1 
 60373.000    40.0020781295   116.6710993260     19.225     14.617      1.090   -0.040       1 
 60374.000    40.0022094908   116.6711115304     19.188     14.605      0.990   -0.035       1 
 60375.000    40.0023420885   116.6711227954     19.172     14.899      0.914   -0.002       1 
 60376.000    40.0024782080   116.6711334099     19.179     15.289      0.927   -0.019       1 
 60377.000    40.0026158169   116.6711462831     19.154     15.254      1.251   -0.031       1 
 60378.000    40.0027536069   116.6711629497     19.133     15.398      1.589    0.003       1 
 60379.000    40.0028938804   116.6711831836     19.131     15.749      1.839   -0.031       1 
 60380.000    40.0030376232   116.6712058778     19.108     16.144      2.040   -0.009       1 
 60381.000    40.0031843565   116.6712314160     19.119     16.413      2.320    0.008       1 
 60382.000    40.0033332387   116.6712607605     19.125     16.605      2.644    0.021       1 
 60383.000    40.0034828824   116.6712939936     19.147     16.596      3.031   -0.003       1 
 60384.000    40.0036324413   116.6713312426     19.158     16.597      3.334    0.017       1 
 60385.000    40.0037819092   116.6713722111     19.176     16.632      3.638    0.057       1 
 60386.000    40.0039325856   116.6714164026     19.240     16.825      3.929    0.055       1 
 60387.000    40.0040846866   116.6714642013     19.307     16.932      4.276    0.074       1 
 60388.000    40.0042374417   116.6715172892     19.365     16.969      4.757    0.044       1 
 60389.000    40.0043901760   116.6715744339     19.415     16.998      4.976    0.039       1 
 60390.000    40.0045442009   116.6716336450     19.466     17.233      5.112    0.063       1 
 60391.000    40.0047000606   116.6716942484     19.522     17.345      5.224    0.053       1 
 60392.000    40.0048570002   116.6717558536     19.553     17.516      5.302    0.032       1 
 60393.000    40.0050148217   116.6718178487     19.591     17.497      5.296    0.066       1 
 60394.000    40.0051718265   116.6718795392     19.670     17.368      5.227    0.042       1 
 60395.000    40.0053275709   116.6719408687     19.727     17.239      5.251    0.085       1 
 60396.000    40.0054820722   116.6720018478     19.799     17.023      5.167    0.067       1 
 60397.000    40.0056337739   116.6720617674     19.857     16.719      5.089    0.047       1 
 60398.000    40.0057851823   116.6721217138     19.909     16.953      5.173    0.061       1 
 60399.000    40.0059390589   116.6721829235     19.968     17.213      5.246    0.045       1 
 60400.000    40.0060951053   116.6722447686     20.011     17.474      5.294    0.037       1 
 60401.000    40.0062539049   116.6723071125     20.077     17.738      5.319    0.078       1 
 60402.000    40.0064138553   116.6723692070     20.131     17.790      5.289    0.047       1 
 60403.000    40.0065738796   116.6724315944     20.190     17.659      5.371    0.069       1 
 60404.000    40.0067310127   116.6724942865     20.255     17.225      5.309    0.068       1 
 60405.000    40.0068843148   116.6725556041     20.310     16.819      5.166    0.068       1 
 60406.000    40.0070338470   116.6726152817     20.366     16.398      5.015    0.072       1 
 60407.000    40.0071796639   116.6726733719     20.412     15.976      4.872    0.042       1 
 60408.000    40.0073218466   116.6727295462     20.461     15.581      4.710    0.052       1 
 60409.000    40.0074603840   116.6727838858     20.519     15.184      4.579    0.056       1 
 60410.000    40.0075955924   116.6728367896     20.572     14.820      4.470    0.043       1 
 60411.000    40.0077271076   116.6728883492     20.625     14.359      4.329    0.047       1 
 60412.000    40.0078537381   116.6729380815     20.665     13.667      4.130    0.042       1 
 60413.000    40.0079729460   116.6729848141     20.716     12.780      3.836    0.059       1 
 60414.000    40.0080837188   116.6730280608     20.775     11.763      3.512    0.063       1 
 60415.000    40.0081841197   116.6730666660     20.824     10.545      3.064    0.040       1 
 60416.000    40.0082735706   116.6731001153     20.856      9.317      2.624    0.037       1 
 60417.000    40.0083520588   116.6731285682     20.894      8.105      2.222    0.046       1 
 60418.000    40.0084196176   116.6731522976     20.929      6.861      1.839    0.033       1 
 60419.000    40.0084757084   116.6731716431     20.960      5.571      1.466    0.040       1 
 60420.000    40.0085202230   116.6731867736     20.983      4.293      1.116    0.020       1 
 60421.000    40.0085531160   116.6731978863     20.999      3.022      0.767    0.010       1 
 60422.000    40.0085745848   116.6732051192     21.006      1.779      0.460    0.011       1 
 60423.000    40.0085872278   116.6732093587     21.011      1.133      0.289    0.000       1 
 60424.000    40.0085953910   116.6732121130     21.014      0.705      0.184    0.006       1 
 60425.000    40.0086005839   116.6732138540     21.017      0.461      0.121    0.004       1 
 60426.000    40.0086033276   116.6732147711     21.020      0.098      0.025    0.002       1 
 60427.000    40.0086034167   116.6732148073     21.022     -0.000     -0.001    0.001       1 
 60428.000    40.0086034122   116.6732148131     21.023     -0.000      0.003    0.002       1 
 60429.000    40.0086034100   116.6732148160     21.025      0.000      0.001    0.002       1 
 60430.000    40.0086034101   116.6732148153     21.026      0.002     -0.001    0.001       1 
 60431.000    40.0086034132   116.6732148184     21.026      0.001     -0.000    0.001       1 
 60432.000    40.0086034142   116.6732148238     21.026      0.003      0.001   -0.001       1 
 60433.000    40.0086034094   116.6732148249     21.026     -0.004     -0.002    0.002       1 
 60434.000    40.0086034645   116.6732148404     21.025      0.073      0.018   -0.003       1 
 60435.000    40.0086057447   116.6732155831     21.025      0.437      0.114   -0.000       1 
 60436.000    40.0086115470   116.6732174852     21.026      0.924      0.235    0.002       1 
 60437.000    40.0086246350   116.6732217600     21.030      1.979      0.498    0.016       1 
 60438.000    40.0086479161   116.6732292246     21.036      3.155      0.778    0.009       1 
 60439.000    40.0086823457   116.6732400409     21.045      4.442      1.063    0.015       1 
 60440.000    40.0087268077   116.6732535685     21.057      5.492      1.265    0.017       1 
 60441.000    40.0087819068   116.6732695452     21.064      6.796      1.469    0.004       1 
 60442.000    40.0088490963   116.6732879724     21.065      8.104      1.659    0.003       1 
 60443.000    40.0089278719   116.6733081042     21.069      9.400      1.768    0.011       1 
 60444.000    40.0090187371   116.6733297079     21.049     10.771      1.943   -0.030       1 
 60445.000    40.0091222479   116.6733535588     21.021     12.192      2.061   -0.000       1 
 60446.000    40.0092368640   116.6733769963     21.018     13.289      1.913   -0.025       1 
 60447.000    40.0093618293   116.6733988538     21.025     14.455      1.835    0.025       0 
 60448.000    40.0094968986   116.6734200130     21.054     15.536      1.720    0.018       0 
 60449.000    40.0096417561   116.6734387656     21.064     16.620      1.441    0.005       0 
 60450.000    40.0097937680   116.6734536939     21.060     16.876      1.037    0.016       0 
 60451.000    40.0099463927   116.6734633383     21.071     17.135      0.635    0.023       0 
 60452.000    40.0101029229   116.6734687687     21.100     17.569      0.303    0.029       0 
 60453.000    40.0102619962   116.6734690580     21.116     17.756     -0.242    0.031       0 
 60454.000    40.0104234084   116.6734631512     21.134     18.069     -0.756    0.055       0 
 60455.000    40.0105867933   116.6734515380     21.144     18.121     -1.223   -0.020       0 
 60456.000    40.0107493054   116.6734345252     21.135     17.978     -1.657   -0.012       1 
 60457.000    40.0109112588   116.6734120122     21.119     17.935     -2.172   -0.010       1 
 60458.000    40.0110725650   116.6733836547     21.085     17.966     -2.676   -0.034       1 
 60459.000    40.0112358318   116.6733494458     21.058     18.244     -3.147   -0.025       1 
 60460.000    40.0113994547   116.6733102537     21.026     18.044     -3.531   -0.043       1 
 60461.000    40.0115604115   116.6732676857     20.978     17.758     -3.709   -0.045       1 
 60462.000    40.0117196341   116.6732241898     20.924     17.611     -3.686   -0.087       1 
 60463.000    40.0118775343   116.6731816395     20.849     17.464     -3.566   -0.055       1 
 60464.000    40.0120333434   116.6731402654     20.772     17.095     -3.503   -0.075       1 
 60465.000    40.0121859179   116.6730998721     20.738     16.742     -3.416    0.014       1 
 60466.000    40.0123350694   116.6730604143     20.761     16.352     -3.362   -0.010       1 
 60467.000    40.0124807162   116.6730207514     20.704     15.975     -3.413   -0.032       1 
 60468.000    40.0126230235   116.6729803737     20.694     15.676     -3.454   -0.017       1 
 60469.000    40.0127641971   116.6729399786     20.671     15.688     -3.418   -0.021       1 
 60470.000    40.0129056112   116.6729006982     20.653     15.666     -3.273   -0.023       1 
 60471.000    40.0130464597   116.6728630314     20.617     15.620     -3.141   -0.036       1 
 60472.000    40.0131867772   116.6728268361     20.607     15.493     -3.039    0.003       1 
 60473.000    40.0133251354   116.6727915975     20.575     15.258     -2.960   -0.039       1 
 60474.000    40.0134614158   116.6727574011     20.571     14.969     -2.892   -0.018       1 
 60475.000    40.0135952714   116.6727236303     20.549     14.805     -2.905   -0.005       1 
 60476.000    40.0137288152   116.6726889599     20.538     14.882     -3.011   -0.006       1 
 60477.000    40.0138633868   116.6726526466     20.543     14.889     -3.168    0.004       1 
 60478.000    40.0139958379   116.6726144077     20.552     14.524     -3.354    0.008       1 
 60479.000    40.0141255622   116.6725739800     20.552     14.317     -3.565   -0.015       1 
 60480.000    40.0142549624   116.6725310430     20.534     14.476     -3.765   -0.036       1 
 60481.000    40.0143857537   116.6724857285     20.499     14.542     -3.932   -0.027       1 
 60482.000    40.0145170172   116.6724389529     20.466     14.649     -4.031    0.002       1 
 60483.000    40.0146502222   116.6723907587     20.452     14.900     -4.186   -0.004       1 
 60484.000    40.0147857854   116.6723405081     20.417     15.207     -4.415   -0.017       1 
 60485.000    40.0149229287   116.6722876401     20.380     15.138     -4.583   -0.058       1 
 60486.000    40.0150580207   116.6722335002     20.329     14.920     -4.671   -0.043       1 
 60487.000    40.0151933811   116.6721776046     20.296     15.151     -4.846   -0.020       1 
 60488.000    40.0153299667   116.6721211856     20.291     15.100     -4.773   -0.011       1 
 60489.000    40.0154657486   116.6720654232     20.272     15.119     -4.737   -0.012       1 
 60490.000    40.0156032108   116.6720098865     20.269     15.443     -4.724    0.000       1 
 60491.000    40.0157441392   116.6719546977     20.282     15.873     -4.685   -0.001       1 
 60492.000    40.0158892179   116.6719004895     20.266     16.280     -4.504   -0.017       1 
 60493.000    40.0160356636   116.6718496812     20.249     16.209     -4.162   -0.008       1 
 60494.000    40.0161831084   116.6718021272     20.247     16.491     -3.964    0.020       1 
 60495.000    40.0163313055   116.6717577569     20.256     16.357     -3.603   -0.005       1 
 60496.000    40.0164789019   116.6717174870     20.250     16.469     -3.290   -0.018       1 
 60497.000    40.0166276442   116.6716809246     20.269     16.551     -2.967    0.035       1 
 60498.000    40.0167769618   116.6716470827     20.284     16.581     -2.834   -0.012       1 
 60499.000    40.0169257631   116.6716145225     20.275     16.445     -2.721    0.007       1 
 60500.000    40.0170728962   116.6715830853     20.281     16.172     -2.628    0.015       1 
 60501.000    40.0172171488   116.6715529250     20.275     15.922     -2.544   -0.016       1 
 60502.000    40.0173605806   116.6715233108     20.255     15.936     -2.535   -0.009       1 
 60503.000    40.0175036947   116.6714933152     20.250     15.834     -2.571    0.011       1 
 60504.000    40.0176456996   116.6714631313     20.257     15.721     -2.567    0.010       1 
 60505.000    40.0177875076   116.6714331238     20.251     15.835     -2.547   -0.021       1 
 60506.000    40.0179311066   116.6714032152     20.244     16.058     -2.547    0.001       1 
 60507.000    40.0180761827   116.6713734400     20.227     16.200     -2.557   -0.029       1 
 60508.000    40.0182237262   116.6713429594     20.205     16.538     -2.676    0.014       1 
 60509.000    40.0183736692   116.6713112280     20.214     16.708     -2.754   -0.001       1 
 60510.000    40.0185251502   116.6712784509     20.215     16.965     -2.842    0.012       1 
 60511.000    40.0186797690   116.6712445366     20.231     17.368     -2.945    0.014       1 
 60512.000    40.0188378177   116.6712096510     20.255     17.663     -2.984    0.045       1 
 60513.000    40.0189977704   116.6711752657     20.299     17.867     -2.891    0.035       1 
 60514.000    40.0191593070   116.6711416158     20.336     17.907     -2.870    0.021       1 
 60515.000    40.0193194397   116.6711082618     20.375     17.676     -2.848    0.063       1 
 60516.000    40.0194791050   116.6710743854     20.424     17.719     -2.943    0.055       1 
 60517.000    40.0196380314   116.6710400998     20.485     17.540     -2.923    0.042       1 
 60518.000    40.0197950205   116.6710062121     20.533     17.355     -2.845    0.053       1 
 60519.000    40.0199517918   116.6709736144     20.602     17.527     -2.738    0.043       1 
 60520.000    40.0201091758   116.6709418643     20.642     17.371     -2.685    0.056       1 
 60521.000    40.0202638545   116.6709105107     20.695     17.036     -2.681    0.021       1 
 60522.000    40.0204166211   116.6708793024     20.717     16.863     -2.636    0.002       1 
 60523.000    40.0205672638   116.6708489452     20.708     16.553     -2.496    0.030       1 
