   GPSTime         Latitude        Longitude      H-Ell      Vel-N      Vel-E    Vel-U       Q  
     (sec)            (Deg)            (Deg)        (m)      (m/s)      (m/s)    (m/s)          
128680.000    30.3815002843   114.4034169285     12.297    -10.973      7.818   -0.341       1 
128681.000    30.3813991269   114.4034975875     11.939    -11.445      7.815   -0.340       1 
128682.000    30.3812935421   114.4035795063     11.653    -12.016      7.929   -0.245       0 
128683.000    30.3811822050   114.4036611620     11.512    -12.770      7.763   -0.073       0 
128684.000    30.3810642433   114.4037394818     11.526    -13.428      7.403    0.109       0 
128685.000    30.3809413572   114.4038144415     11.700    -13.732      7.011    0.251       0 
128686.000    30.3808180230   114.4038843651     12.001    -13.736      6.493    0.369       2 
128687.000    30.3806935496   114.4039499116     12.392    -13.951      6.161    0.393       2 
128688.000    30.3805664475   114.4040118018     12.770    -14.325      5.716    0.332       1 
128689.000    30.3804355638   114.4040675973     13.094    -14.746      5.102    0.288       1 
128690.000    30.3803010900   114.4041180588     13.361    -15.105      4.683    0.242       1 
128691.000    30.3801634714   114.4041639666     13.576    -15.441      4.189    0.182       1 
128692.000    30.3800239350   114.4042043297     13.735    -15.398      3.596    0.139       2 
128693.000    30.3798862182   114.4042389321     13.791    -15.194      3.116   -0.000       2 
128694.000    30.3797492420   114.4042706909     13.723    -15.181      3.054   -0.121       1 
128695.000    30.3796118681   114.4043027727     13.555    -15.232      3.188   -0.226       1 
128696.000    30.3794744249   114.4043391284     13.345    -15.197      3.753   -0.218       1 
128697.000    30.3793365865   114.4043788509     13.118    -15.386      3.781   -0.276       1 
128698.000    30.3791974389   114.4044174546     12.902    -15.373      3.652   -0.218       1 
128699.000    30.3790599961   114.4044538466     12.747    -15.170      3.368   -0.118       1 
128700.000    30.3789233735   114.4044871169     12.626    -15.148      3.066   -0.116       1 
128701.000    30.3787866534   114.4045178100     12.510    -15.175      2.860   -0.105       1 
128702.000    30.3786497599   114.4045467194     12.433    -15.181      2.749   -0.080       1 
128703.000    30.3785128160   114.4045749817     12.363    -15.162      2.665   -0.089       1 
128704.000    30.3783758955   114.4046033340     12.284    -15.173      2.802   -0.073       1 
128705.000    30.3782390938   114.4046334928     12.225    -15.200      2.967   -0.066       1 
128706.000    30.3781015418   114.4046651225     12.155    -15.299      3.098   -0.110       1 
128707.000    30.3779636572   114.4046974166     12.083    -15.173      3.096   -0.059       1 
128708.000    30.3778281090   114.4047293339     12.017    -14.874      2.991   -0.033       1 
128709.000    30.3776954278   114.4047601273     11.983    -14.540      2.895   -0.029       1 
128710.000    30.3775664511   114.4047892590     12.016    -14.078      2.692    0.082       1 
128711.000    30.3774423426   114.4048161857     12.131    -13.362      2.533    0.154       1 
128712.000    30.3773262260   114.4048433499     12.308    -12.286      2.550    0.247       1 
128713.000    30.3772215841   114.4048693941     12.534    -10.823      2.384    0.194       1 
128714.000    30.3771325488   114.4048905684     12.741     -8.934      1.673    0.177       1 
128715.000    30.3770611252   114.4049046147     12.885     -6.912      1.093    0.108       1 
128716.000    30.3770087418   114.4049130038     12.991     -4.806      0.611    0.086       1 
128717.000    30.3769705477   114.4049181130     13.058     -3.686      0.397    0.067       1 
128718.000    30.3769431637   114.4049211836     13.108     -2.570      0.259    0.042       1 
128719.000    30.3769224262   114.4049233431     13.156     -2.076      0.178    0.046       1 
128720.000    30.3769064300   114.4049249532     13.187     -1.483      0.133    0.026       1 
128721.000    30.3768945618   114.4049260360     13.216     -1.295      0.097    0.044       1 
128722.000    30.3768825165   114.4049269501     13.238     -1.417      0.065    0.021       1 
128723.000    30.3768698727   114.4049268047     13.258     -1.471     -0.056    0.028       1 
128724.000    30.3768567926   114.4049249911     13.276     -1.577     -0.215    0.036       1 
128725.000    30.3768434572   114.4049210845     13.289     -1.572     -0.421    0.011       1 
128726.000    30.3768301178   114.4049153481     13.309     -1.574     -0.573    0.005       1 
128727.000    30.3768175398   114.4049080499     13.326     -1.362     -0.697    0.019       1 
128728.000    30.3768069420   114.4049008317     13.340     -1.114     -0.628    0.012       1 
128729.000    30.3767981669   114.4048943880     13.350     -0.909     -0.557    0.016       1 
128730.000    30.3767912730   114.4048886963     13.356     -0.748     -0.529   -0.011       1 
128731.000    30.3767844692   114.4048818981     13.361     -0.886     -0.778    0.005       1 
128732.000    30.3767763733   114.4048718305     13.357     -1.022     -1.095   -0.011       1 
128733.000    30.3767680948   114.4048587916     13.343     -1.039     -1.339   -0.021       1 
128734.000    30.3767592572   114.4048430844     13.316     -1.082     -1.656   -0.018       1 
128735.000    30.3767507070   114.4048244839     13.281     -0.910     -1.842   -0.021       1 
128736.000    30.3767451757   114.4048054360     13.250     -0.596     -1.900   -0.047       1 
128737.000    30.3767418463   114.4047853916     13.222     -0.387     -1.926   -0.032       1 
128738.000    30.3767391524   114.4047651134     13.186     -0.339     -1.964   -0.017       1 
128739.000    30.3767358387   114.4047468461     13.154     -0.331     -1.540   -0.022       1 
128740.000    30.3767329390   114.4047340518     13.132     -0.260     -1.128   -0.035       1 
128741.000    30.3767296436   114.4047210817     13.106     -0.395     -1.278   -0.011       1 
128742.000    30.3767255197   114.4047097756     13.087     -0.409     -0.893   -0.008       1 
128743.000    30.3767220307   114.4047024577     13.072     -0.249     -0.506   -0.016       1 
128744.000    30.3767202722   114.4046990097     13.064     -0.053     -0.144   -0.012       1 
128745.000    30.3767202381   114.4046988403     13.065      0.020     -0.005   -0.006       1 
128746.000    30.3767202562   114.4046988304     13.066      0.008     -0.015    0.010       1 
128747.000    30.3767202722   114.4046988352     13.067     -0.024      0.013    0.001       1 
128748.000    30.3767202848   114.4046988352     13.066     -0.015      0.019   -0.008       1 
128749.000    30.3767202969   114.4046988244     13.065      0.017     -0.018    0.006       1 
128750.000    30.3767202817   114.4046986942     13.064     -0.046     -0.083    0.008       1 
128751.000    30.3767192585   114.4046961821     13.058     -0.187     -0.406   -0.028       1 
128752.000    30.3767170616   114.4046911244     13.044     -0.227     -0.494   -0.014       1 
128753.000    30.3767159219   114.4046887427     13.038      0.013     -0.018   -0.011       1 
128754.000    30.3767159616   114.4046887144     13.037      0.025     -0.024    0.010       1 
128755.000    30.3767159894   114.4046887041     13.038     -0.009      0.007   -0.005       1 
128756.000    30.3767160071   114.4046887024     13.038     -0.014      0.014   -0.003       1 
128757.000    30.3767160122   114.4046887008     13.038     -0.014      0.004    0.006       1 
128758.000    30.3767160148   114.4046887003     13.038      0.018     -0.026    0.009       1 
128759.000    30.3767160191   114.4046887069     13.037      0.027     -0.019   -0.005       1 
128760.000    30.3767160203   114.4046887084     13.037      0.002     -0.001   -0.006       1 
128761.000    30.3767160228   114.4046887042     13.036     -0.029      0.027   -0.005       1 
128762.000    30.3767160244   114.4046886967     13.036      0.011     -0.017    0.007       1 
128763.000    30.3767160298   114.4046886903     13.037      0.019     -0.013   -0.000       1 
128764.000    30.3767160340   114.4046886852     13.037     -0.023      0.021   -0.002       1 
128765.000    30.3767160434   114.4046886777     13.038      0.023     -0.021    0.002       1 
128766.000    30.3767158350   114.4046882196     13.037     -0.049     -0.163   -0.009       1 
128767.000    30.3767157472   114.4046879975     13.038      0.007      0.006   -0.005       1 
128768.000    30.3767150557   114.4046865321     13.035     -0.144     -0.295    0.008       1 
128769.000    30.3767146372   114.4046855847     13.032     -0.090     -0.124   -0.005       1 
128770.000    30.3767135567   114.4046832382     13.026     -0.097     -0.206    0.006       1 
128771.000    30.3767132883   114.4046825975     13.025     -0.009      0.015   -0.004       1 
128772.000    30.3767133085   114.4046825726     13.027     -0.022      0.012    0.005       1 
128773.000    30.3767132445   114.4046823490     13.028     -0.020     -0.113    0.010       1 
128774.000    30.3767126397   114.4046809532     13.026     -0.088     -0.178   -0.011       1 
128775.000    30.3767116402   114.4046787079     13.022     -0.140     -0.257    0.006       1 
128776.000    30.3767112486   114.4046777270     13.020      0.027     -0.019    0.000       1 
128777.000    30.3767112937   114.4046777040     13.019     -0.001      0.007   -0.008       1 
128778.000    30.3767112268   114.4046774209     13.018     -0.062     -0.099    0.008       1 
128779.000    30.3767103393   114.4046753534     13.014     -0.122     -0.262   -0.015       1 
128780.000    30.3767089915   114.4046721091     13.005     -0.187     -0.303   -0.004       1 
128781.000    30.3767080366   114.4046698699     12.998      0.012     -0.056   -0.006       1 
128782.000    30.3767080778   114.4046698574     12.997     -0.007      0.014   -0.012       1 
128783.000    30.3767080908   114.4046698424     12.995     -0.016      0.002    0.008       1 
128784.000    30.3767080993   114.4046698370     12.995      0.029     -0.016   -0.002       1 
128785.000    30.3767080984   114.4046698352     12.995     -0.020      0.022   -0.003       1 
128786.000    30.3767080962   114.4046698345     12.996      0.005     -0.009    0.008       1 
128787.000    30.3767081009   114.4046698372     12.996      0.013      0.003   -0.010       1 
128788.000    30.3767080948   114.4046698368     12.997     -0.025      0.013    0.006       1 
128789.000    30.3767080939   114.4046698331     12.998      0.026     -0.012   -0.004       1 
128790.000    30.3767080980   114.4046698315     12.998     -0.029      0.020    0.002       1 
128791.000    30.3767081018   114.4046698316     12.999      0.029     -0.025    0.003       1 
128792.000    30.3767081121   114.4046698340     12.999     -0.025      0.021   -0.003       1 
128793.000    30.3767081089   114.4046698344     12.999      0.023     -0.022    0.005       1 
128794.000    30.3767081152   114.4046698388     12.998     -0.015      0.024   -0.009       1 
128795.000    30.3767081092   114.4046698373     12.998     -0.003     -0.005    0.005       1 
128796.000    30.3767081130   114.4046698423     12.997      0.014     -0.001   -0.010       1 
128797.000    30.3767081097   114.4046698405     12.997     -0.023      0.017   -0.000       1 
128798.000    30.3767081090   114.4046698365     12.996      0.027     -0.024    0.003       1 
128799.000    30.3767081080   114.4046698352     12.996     -0.027      0.025   -0.003       1 
128800.000    30.3767081056   114.4046698301     12.995      0.027     -0.027    0.004       1 
128801.000    30.3767081049   114.4046698299     12.996     -0.017      0.019   -0.007       1 
128802.000    30.3767080949   114.4046698262     12.995      0.006     -0.012    0.005       1 
128803.000    30.3767080885   114.4046698290     12.995      0.014     -0.012    0.001       1 
128804.000    30.3767080815   114.4046698272     12.996     -0.028      0.021    0.002       1 
128805.000    30.3767080813   114.4046698206     12.996      0.030     -0.032    0.002       1 
128806.000    30.3767080899   114.4046698117     12.997     -0.032      0.026   -0.001       1 
128807.000    30.3767081099   114.4046697914     12.998      0.036     -0.035    0.004       1 
128808.000    30.3767081496   114.4046697634     12.999     -0.024      0.017    0.003       1 
128809.000    30.3767077680   114.4046687314     12.997     -0.123     -0.285   -0.016       1 
128810.000    30.3767055601   114.4046643012     12.988     -0.226     -0.366    0.004       1 
128811.000    30.3767042578   114.4046618025     12.983     -0.235     -0.312   -0.009       1 
128812.000    30.3767012759   114.4046574845     12.980     -0.269     -0.424    0.002       1 
128813.000    30.3766993175   114.4046548614     12.976     -0.046     -0.071   -0.007       1 
128814.000    30.3766993513   114.4046547974     12.976      0.030     -0.018   -0.001       1 
128815.000    30.3766993797   114.4046547764     12.975     -0.018      0.014    0.001       1 
128816.000    30.3766993931   114.4046547664     12.974      0.029     -0.020   -0.000       1 
128817.000    30.3766993989   114.4046547643     12.974     -0.024      0.019   -0.006       1 
128818.000    30.3766993942   114.4046547605     12.974      0.017     -0.021    0.008       1 
128819.000    30.3766993891   114.4046547623     12.974     -0.020      0.011   -0.001       1 
128820.000    30.3766993803   114.4046547599     12.975      0.005     -0.012    0.007       1 
128821.000    30.3766993810   114.4046547646     12.975      0.014     -0.012   -0.003       1 
128822.000    30.3766993768   114.4046547664     12.975     -0.028      0.033   -0.004       1 
128823.000    30.3766993756   114.4046547636     12.974      0.025     -0.025    0.004       1 
128824.000    30.3766993823   114.4046547599     12.973     -0.001      0.014   -0.009       1 
128825.000    30.3766993807   114.4046547582     12.972     -0.009      0.007    0.005       1 
128826.000    30.3766993812   114.4046547622     12.972      0.030     -0.028   -0.000       1 
128827.000    30.3766993849   114.4046547656     12.972     -0.017      0.020   -0.009       1 
128828.000    30.3766993838   114.4046547651     12.972     -0.001     -0.014    0.010       1 
128829.000    30.3766993867   114.4046547649     12.972      0.012     -0.004   -0.005       1 
128830.000    30.3766993827   114.4046547657     12.971     -0.019      0.009    0.004       1 
128831.000    30.3766993858   114.4046547668     12.972      0.028     -0.021    0.002       1 
128832.000    30.3766993922   114.4046547699     12.972     -0.017      0.022   -0.008       1 
128833.000    30.3766993929   114.4046547674     12.972      0.013     -0.016    0.007       1 
128834.000    30.3766993982   114.4046547658     12.971     -0.009      0.007   -0.004       1 
128835.000    30.3766993990   114.4046547582     12.971     -0.011      0.004    0.003       1 
128836.000    30.3766994026   114.4046547575     12.970      0.026     -0.019   -0.001       1 
128837.000    30.3766994036   114.4046547589     12.970     -0.022      0.026   -0.008       1 
128838.000    30.3766994059   114.4046547599     12.970      0.021     -0.024    0.008       1 
128839.000    30.3766994088   114.4046547622     12.970     -0.011      0.009   -0.003       1 
128840.000    30.3766994041   114.4046547567     12.970     -0.009      0.005    0.003       1 
128841.000    30.3766994041   114.4046547525     12.970      0.015     -0.012   -0.005       1 
128842.000    30.3766993982   114.4046547466     12.970     -0.027      0.023   -0.001       1 
128843.000    30.3766993934   114.4046547422     12.969      0.024     -0.018   -0.003       1 
128844.000    30.3766993847   114.4046547398     12.969     -0.034      0.020    0.005       1 
128845.000    30.3766993793   114.4046547401     12.969      0.030     -0.030    0.000       1 
128846.000    30.3766993781   114.4046547434     12.969     -0.016      0.019   -0.005       1 
128847.000    30.3766993777   114.4046547400     12.968      0.006     -0.014    0.007       1 
128848.000    30.3766993822   114.4046547414     12.968      0.015      0.003   -0.011       1 
128849.000    30.3766993829   114.4046547383     12.968     -0.024      0.006    0.012       1 
128850.000    30.3766993982   114.4046547330     12.967      0.028     -0.023   -0.005       1 
128851.000    30.3766993994   114.4046547335     12.967     -0.024      0.023   -0.002       1 
128852.000    30.3766993968   114.4046547368     12.967      0.023     -0.029    0.007       1 
128853.000    30.3766993984   114.4046547415     12.967     -0.028      0.032   -0.005       1 
128854.000    30.3766993990   114.4046547378     12.968      0.022     -0.026    0.008       1 
128855.000    30.3766994073   114.4046547348     12.969     -0.012      0.013   -0.006       1 
128856.000    30.3766994047   114.4046547290     12.970      0.002     -0.009    0.008       1 
128857.000    30.3766994086   114.4046547256     12.972      0.019     -0.019    0.001       1 
128858.000    30.3766994046   114.4046547229     12.973     -0.033      0.033    0.002       1 
128859.000    30.3766994032   114.4046547203     12.974      0.035     -0.036    0.002       1 
128860.000    30.3766993958   114.4046547203     12.975     -0.034      0.026   -0.001       1 
128861.000    30.3766993890   114.4046547178     12.975      0.021     -0.028    0.008       1 
128862.000    30.3766993895   114.4046547192     12.975     -0.010      0.023   -0.010       1 
128863.000    30.3766993857   114.4046547180     12.976      0.004     -0.021    0.015       1 
128864.000    30.3766993897   114.4046547163     12.977      0.009      0.011   -0.014       1 
128865.000    30.3766993846   114.4046547183     12.977     -0.015     -0.001    0.010       1 
128866.000    30.3766993861   114.4046547199     12.977      0.023     -0.024   -0.001       1 
128867.000    30.3766993817   114.4046547205     12.978     -0.031      0.036   -0.002       1 
128868.000    30.3766993786   114.4046547233     12.977      0.036     -0.036    0.002       1 
128869.000    30.3766993777   114.4046547269     12.977     -0.037      0.034   -0.003       1 
128870.000    30.3766993746   114.4046547295     12.977      0.019     -0.020    0.005       1 
128871.000    30.3766993770   114.4046547263     12.977     -0.006      0.013   -0.007       1 
128872.000    30.3766993721   114.4046547203     12.977     -0.006     -0.004    0.009       1 
128873.000    30.3766993755   114.4046547127     12.976      0.019     -0.006   -0.012       1 
128874.000    30.3766993731   114.4046547065     12.975     -0.026      0.016    0.005       1 
128875.000    30.3766993748   114.4046546991     12.975      0.031     -0.029    0.001       1 
128876.000    30.3766993773   114.4046546946     12.975     -0.026      0.034   -0.007       1 
128877.000    30.3766993742   114.4046546871     12.976      0.021     -0.033    0.012       1 
128878.000    30.3766993759   114.4046546845     12.978     -0.011      0.022   -0.011       1 
128879.000    30.3766993710   114.4046546834     12.978     -0.006     -0.009    0.010       1 
128880.000    30.3766993757   114.4046546864     12.977      0.011     -0.016   -0.001       1 
128881.000    30.3766993733   114.4046546861     12.977     -0.021      0.014    0.007       1 
128882.000    30.3766993790   114.4046546823     12.978      0.035     -0.042    0.006       1 
128883.000    30.3766993787   114.4046546808     12.979     -0.020      0.017   -0.004       1 
