   GPSTime         Latitude        Longitude      H-Ell      Vel-N      Vel-E    Vel-U       Q  
     (sec)            (Deg)            (Deg)        (m)      (m/s)      (m/s)    (m/s)          
128680.000    30.3814985824   114.4034244078     11.738    -10.949      7.844   -0.333       1 
128681.000    30.3813973070   114.4035050818     11.386    -11.444      7.820   -0.344       1 
128682.000    30.3812915832   114.4035869918     11.105    -12.009      7.942   -0.247       0 
128683.000    30.3811799445   114.4036685622     10.967    -12.736      7.795   -0.057       0 
128684.000    30.3810616621   114.4037468082     10.990    -13.420      7.415    0.110       0 
128685.000    30.3809385585   114.4038217013     11.169    -13.726      7.025    0.247       0 
128686.000    30.3808150069   114.4038915500     11.475    -13.713      6.515    0.379       2 
128687.000    30.3806903494   114.4039570254     11.871    -13.936      6.181    0.395       2 
128688.000    30.3805630353   114.4040187448     12.244    -14.299      5.739    0.346       1 
128689.000    30.3804318858   114.4040743625     12.569    -14.734      5.113    0.292       1 
128690.000    30.3802972279   114.4041247015     12.838    -15.091      4.691    0.253       1 
128691.000    30.3801594219   114.4041704573     13.052    -15.434      4.205    0.178       1 
128692.000    30.3800196976   114.4042106538     13.211    -15.389      3.615    0.134       2 
128693.000    30.3798818848   114.4042451141     13.261    -15.186      3.125    0.002       2 
128694.000    30.3797449195   114.4042768860     13.193    -15.189      3.059   -0.137       1 
128695.000    30.3796076121   114.4043090243     13.025    -15.246      3.158   -0.217       1 
128696.000    30.3794703881   114.4043455346     12.811    -15.204      3.756   -0.229       1 
128697.000    30.3793325347   114.4043851653     12.575    -15.389      3.769   -0.269       1 
128698.000    30.3791933686   114.4044237467     12.358    -15.371      3.652   -0.216       1 
128699.000    30.3790558347   114.4044600831     12.206    -15.162      3.380   -0.119       1 
128700.000    30.3789191284   114.4044932854     12.085    -15.144      3.083   -0.126       1 
128701.000    30.3787823450   114.4045239270     11.971    -15.169      2.869   -0.106       1 
128702.000    30.3786454015   114.4045527971     11.894    -15.183      2.742   -0.077       1 
128703.000    30.3785084478   114.4045810308     11.822    -15.182      2.655   -0.107       1 
128704.000    30.3783715664   114.4046094348     11.745    -15.166      2.802   -0.063       1 
128705.000    30.3782348195   114.4046396586     11.687    -15.200      2.960   -0.059       1 
128706.000    30.3780972964   114.4046713067     11.616    -15.303      3.082   -0.101       1 
128707.000    30.3779594268   114.4047036338     11.546    -15.178      3.092   -0.062       1 
128708.000    30.3778238739   114.4047355429     11.479    -14.879      2.996   -0.044       1 
128709.000    30.3776911698   114.4047663258     11.447    -14.534      2.917   -0.042       1 
128710.000    30.3775621199   114.4047954323     11.485    -14.061      2.691    0.105       1 
128711.000    30.3774380012   114.4048224005     11.605    -13.393      2.559    0.089       1 
128712.000    30.3773219357   114.4048496352     11.785    -12.294      2.557    0.230       1 
128713.000    30.3772173279   114.4048756735     12.007    -10.816      2.363    0.223       1 
128714.000    30.3771281644   114.4048966866     12.209     -8.925      1.704    0.160       1 
128715.000    30.3770566001   114.4049105841     12.352     -6.895      1.105    0.119       1 
128716.000    30.3770040913   114.4049188678     12.461     -4.795      0.617    0.094       1 
128717.000    30.3769657992   114.4049238675     12.527     -3.678      0.409    0.067       1 
128718.000    30.3769383240   114.4049268925     12.583     -2.547      0.256    0.077       1 
128719.000    30.3769175259   114.4049290309     12.635     -2.082      0.168    0.048       1 
128720.000    30.3769015148   114.4049306371     12.667     -1.476      0.129    0.039       1 
128721.000    30.3768896357   114.4049317106     12.697     -1.286      0.114    0.042       1 
128722.000    30.3768775081   114.4049324766     12.714     -1.393      0.088    0.032       1 
128723.000    30.3768646316   114.4049320041     12.731     -1.447     -0.008    0.015       1 
128724.000    30.3768511497   114.4049295854     12.748     -1.512     -0.137    0.050       1 
128725.000    30.3768373943   114.4049249428     12.764     -1.534     -0.341   -0.011       1 
128726.000    30.3768237033   114.4049183771     12.785     -1.508     -0.512    0.036       1 
128727.000    30.3768108755   114.4049102342     12.802     -1.320     -0.634    0.017       1 
128728.000    30.3768001724   114.4049024904     12.814     -1.096     -0.594    0.006       1 
128729.000    30.3767913577   114.4048957480     12.822     -0.886     -0.537    0.029       1 
128730.000    30.3767844184   114.4048897773     12.830     -0.729     -0.504   -0.008       1 
128731.000    30.3767775739   114.4048824168     12.833     -0.852     -0.727    0.002       1 
128732.000    30.3767695011   114.4048714718     12.824     -0.976     -1.013   -0.025       1 
128733.000    30.3767613336   114.4048574762     12.807     -0.978     -1.286    0.011       1 
128734.000    30.3767526466   114.4048411084     12.776     -1.048     -1.606   -0.019       1 
128735.000    30.3767443591   114.4048217468     12.733     -0.845     -1.753   -0.016       1 
128736.000    30.3767392430   114.4048016185     12.705     -0.542     -1.816   -0.052       1 
128737.000    30.3767364224   114.4047807017     12.674     -0.329     -1.864   -0.011       1 
128738.000    30.3767339495   114.4047601287     12.636     -0.347     -1.960   -0.032       1 
128739.000    30.3767304952   114.4047420573     12.604     -0.356     -1.546   -0.049       1 
128740.000    30.3767274539   114.4047294467     12.585     -0.286     -1.145   -0.054       1 
128741.000    30.3767239917   114.4047167209     12.561     -0.429     -1.316   -0.021       1 
128742.000    30.3767196425   114.4047058773     12.539     -0.425     -0.913   -0.012       1 
128743.000    30.3767159395   114.4046990195     12.525     -0.276     -0.530   -0.030       1 
128744.000    30.3767140728   114.4046958121     12.518     -0.067     -0.151   -0.025       1 
128745.000    30.3767140300   114.4046956454     12.520      0.011     -0.004   -0.019       1 
128746.000    30.3767140480   114.4046956398     12.521      0.002     -0.014    0.002       1 
128747.000    30.3767140605   114.4046956452     12.522     -0.008      0.012    0.023       1 
128748.000    30.3767140738   114.4046956418     12.521     -0.002      0.023    0.005       1 
128749.000    30.3767140846   114.4046956349     12.520      0.009     -0.016   -0.007       1 
128750.000    30.3767140656   114.4046955015     12.520     -0.040     -0.083    0.016       1 
128751.000    30.3767130223   114.4046930061     12.515     -0.193     -0.412   -0.031       1 
128752.000    30.3767107863   114.4046880278     12.503     -0.248     -0.510   -0.027       1 
128753.000    30.3767096147   114.4046857169     12.498      0.007     -0.014   -0.024       1 
128754.000    30.3767096546   114.4046856933     12.497      0.012     -0.018   -0.013       1 
128755.000    30.3767096815   114.4046856824     12.498     -0.001      0.010    0.003       1 
128756.000    30.3767096987   114.4046856807     12.498     -0.003      0.017    0.009       1 
128757.000    30.3767097043   114.4046856825     12.498     -0.006      0.005    0.017       1 
128758.000    30.3767097065   114.4046856835     12.497      0.005     -0.024   -0.010       1 
128759.000    30.3767097094   114.4046856904     12.497      0.011     -0.012   -0.031       1 
128760.000    30.3767097100   114.4046856927     12.497      0.002      0.002   -0.008       1 
128761.000    30.3767097121   114.4046856901     12.496     -0.009      0.027    0.022       1 
128762.000    30.3767097143   114.4046856853     12.496      0.003     -0.016   -0.005       1 
128763.000    30.3767097182   114.4046856787     12.496      0.008     -0.010   -0.018       1 
128764.000    30.3767097216   114.4046856761     12.497     -0.007      0.020    0.019       1 
128765.000    30.3767097313   114.4046856697     12.498      0.008     -0.018   -0.020       1 
128766.000    30.3767095201   114.4046852158     12.497     -0.067     -0.160   -0.035       1 
128767.000    30.3767094354   114.4046850023     12.497      0.006      0.007   -0.006       1 
128768.000    30.3767087445   114.4046835382     12.494     -0.149     -0.290   -0.003       1 
128769.000    30.3767083219   114.4046825842     12.492     -0.077     -0.121    0.009       1 
128770.000    30.3767072547   114.4046802438     12.484     -0.100     -0.204    0.001       1 
128771.000    30.3767069874   114.4046795974     12.483      0.002      0.017    0.009       1 
128772.000    30.3767070081   114.4046795746     12.485     -0.006      0.013    0.026       1 
128773.000    30.3767069433   114.4046793498     12.485     -0.034     -0.108   -0.014       1 
128774.000    30.3767063405   114.4046779502     12.484     -0.087     -0.171   -0.017       1 
128775.000    30.3767053451   114.4046757006     12.479     -0.135     -0.260    0.014       1 
128776.000    30.3767049541   114.4046747206     12.477      0.014     -0.015   -0.021       1 
128777.000    30.3767049974   114.4046746967     12.477      0.004      0.009   -0.003       1 
128778.000    30.3767049283   114.4046744145     12.475     -0.053     -0.100    0.020       1 
128779.000    30.3767040384   114.4046723283     12.473     -0.126     -0.255   -0.027       1 
128780.000    30.3767026696   114.4046690951     12.466     -0.173     -0.307    0.017       1 
128781.000    30.3767017115   114.4046668556     12.460     -0.006     -0.057   -0.028       1 
128782.000    30.3767017470   114.4046668378     12.460      0.001      0.016   -0.003       1 
128783.000    30.3767017611   114.4046668257     12.458     -0.007     -0.000    0.022       1 
128784.000    30.3767017687   114.4046668205     12.458      0.013     -0.011   -0.028       1 
128785.000    30.3767017674   114.4046668205     12.458     -0.007      0.018    0.018       1 
128786.000    30.3767017651   114.4046668224     12.459      0.002     -0.008    0.002       1 
128787.000    30.3767017682   114.4046668243     12.459      0.007      0.007   -0.020       1 
128788.000    30.3767017624   114.4046668270     12.460     -0.011      0.009    0.028       1 
128789.000    30.3767017605   114.4046668248     12.460      0.011     -0.008   -0.028       1 
128790.000    30.3767017637   114.4046668261     12.461     -0.012      0.016    0.029       1 
128791.000    30.3767017682   114.4046668260     12.462      0.011     -0.021   -0.024       1 
128792.000    30.3767017758   114.4046668298     12.462     -0.008      0.019    0.021       1 
128793.000    30.3767017763   114.4046668322     12.461      0.008     -0.021   -0.016       1 
128794.000    30.3767017813   114.4046668348     12.461     -0.002      0.027    0.005       1 
128795.000    30.3767017773   114.4046668391     12.460     -0.003     -0.011    0.010       1 
128796.000    30.3767017791   114.4046668417     12.459      0.007      0.001   -0.023       1 
128797.000    30.3767017756   114.4046668423     12.459     -0.009      0.013    0.023       1 
128798.000    30.3767017747   114.4046668398     12.459      0.009     -0.020   -0.024       1 
128799.000    30.3767017730   114.4046668390     12.458     -0.008      0.025    0.022       1 
128800.000    30.3767017708   114.4046668365     12.458      0.008     -0.026   -0.022       1 
128801.000    30.3767017685   114.4046668355     12.458     -0.004      0.021    0.007       1 
128802.000    30.3767017593   114.4046668351     12.458     -0.000     -0.012   -0.002       1 
128803.000    30.3767017514   114.4046668379     12.458      0.004     -0.011   -0.013       1 
128804.000    30.3767017443   114.4046668383     12.458     -0.010      0.020    0.027       1 
128805.000    30.3767017437   114.4046668326     12.458      0.010     -0.029   -0.028       1 
128806.000    30.3767017515   114.4046668246     12.459     -0.010      0.023    0.031       1 
128807.000    30.3767017714   114.4046668063     12.460      0.015     -0.027   -0.031       1 
128808.000    30.3767018100   114.4046667790     12.462     -0.005      0.014    0.031       1 
128809.000    30.3767014177   114.4046657426     12.462     -0.134     -0.286   -0.031       1 
128810.000    30.3766991694   114.4046614367     12.452     -0.223     -0.374    0.016       1 
128811.000    30.3766978223   114.4046590183     12.450     -0.227     -0.330    0.018       1 
128812.000    30.3766947343   114.4046550380     12.447     -0.303     -0.452   -0.017       1 
128813.000    30.3766927244   114.4046526399     12.442     -0.047     -0.072   -0.008       1 
128814.000    30.3766927516   114.4046525780     12.443      0.016     -0.014   -0.024       1 
128815.000    30.3766927808   114.4046525579     12.442     -0.005      0.010    0.021       1 
128816.000    30.3766927936   114.4046525494     12.441      0.011     -0.017   -0.027       1 
128817.000    30.3766927982   114.4046525479     12.441     -0.007      0.021    0.014       1 
128818.000    30.3766927940   114.4046525469     12.440      0.005     -0.019   -0.010       1 
128819.000    30.3766927878   114.4046525482     12.441     -0.006      0.016    0.012       1 
128820.000    30.3766927801   114.4046525489     12.441      0.001     -0.011    0.000       1 
128821.000    30.3766927788   114.4046525532     12.442      0.006     -0.008   -0.018       1 
128822.000    30.3766927752   114.4046525572     12.442     -0.008      0.030    0.026       1 
128823.000    30.3766927744   114.4046525566     12.440      0.007     -0.026   -0.019       1 
128824.000    30.3766927790   114.4046525525     12.440      0.002      0.014   -0.005       1 
128825.000    30.3766927780   114.4046525541     12.439     -0.004      0.005    0.013       1 
128826.000    30.3766927778   114.4046525583     12.439      0.010     -0.025   -0.029       1 
128827.000    30.3766927802   114.4046525622     12.439     -0.004      0.024    0.006       1 
128828.000    30.3766927805   114.4046525648     12.439     -0.003     -0.015    0.008       1 
128829.000    30.3766927815   114.4046525642     12.439      0.006      0.001   -0.017       1 
128830.000    30.3766927785   114.4046525680     12.438     -0.009      0.006    0.021       1 
128831.000    30.3766927809   114.4046525701     12.438      0.010     -0.019   -0.024       1 
128832.000    30.3766927863   114.4046525730     12.439     -0.004      0.023    0.008       1 
128833.000    30.3766927880   114.4046525739     12.438      0.004     -0.017   -0.004       1 
128834.000    30.3766927916   114.4046525712     12.438     -0.001      0.012    0.002       1 
128835.000    30.3766927932   114.4046525669     12.437     -0.005      0.001    0.014       1 
128836.000    30.3766927959   114.4046525665     12.437      0.009     -0.018   -0.024       1 
128837.000    30.3766927964   114.4046525685     12.437     -0.006      0.026    0.014       1 
128838.000    30.3766927993   114.4046525723     12.437      0.007     -0.022   -0.013       1 
128839.000    30.3766928008   114.4046525742     12.437     -0.003      0.012    0.005       1 
128840.000    30.3766927971   114.4046525717     12.437     -0.004      0.003    0.012       1 
128841.000    30.3766927960   114.4046525671     12.437      0.005     -0.011   -0.019       1 
128842.000    30.3766927903   114.4046525633     12.436     -0.009      0.021    0.024       1 
128843.000    30.3766927848   114.4046525587     12.436      0.009     -0.015   -0.026       1 
128844.000    30.3766927760   114.4046525590     12.436     -0.014      0.017    0.035       1 
128845.000    30.3766927705   114.4046525602     12.436      0.010     -0.023   -0.032       1 
128846.000    30.3766927684   114.4046525638     12.436     -0.004      0.018    0.011       1 
128847.000    30.3766927687   114.4046525633     12.435      0.001     -0.014    0.000       1 
128848.000    30.3766927719   114.4046525638     12.435      0.008      0.007   -0.023       1 
128849.000    30.3766927739   114.4046525645     12.434     -0.010      0.002    0.033       1 
128850.000    30.3766927846   114.4046525597     12.435      0.011     -0.017   -0.033       1 
128851.000    30.3766927857   114.4046525620     12.434     -0.007      0.024    0.019       1 
128852.000    30.3766927840   114.4046525666     12.434      0.007     -0.027   -0.017       1 
128853.000    30.3766927847   114.4046525709     12.434     -0.007      0.033    0.022       1 
128854.000    30.3766927864   114.4046525701     12.435      0.007     -0.024   -0.014       1 
128855.000    30.3766927925   114.4046525669     12.436     -0.003      0.015    0.005       1 
128856.000    30.3766927915   114.4046525632     12.437      0.001     -0.006    0.003       1 
128857.000    30.3766927946   114.4046525589     12.439      0.005     -0.018   -0.018       1 
128858.000    30.3766927908   114.4046525584     12.440     -0.010      0.031    0.035       1 
128859.000    30.3766927892   114.4046525565     12.441      0.012     -0.029   -0.035       1 
128860.000    30.3766927809   114.4046525576     12.442     -0.013      0.023    0.030       1 
128861.000    30.3766927747   114.4046525571     12.442      0.006     -0.023   -0.017       1 
128862.000    30.3766927741   114.4046525577     12.442     -0.000      0.024    0.002       1 
128863.000    30.3766927714   114.4046525600     12.442     -0.002     -0.021    0.008       1 
128864.000    30.3766927726   114.4046525579     12.444      0.007      0.015   -0.022       1 
128865.000    30.3766927680   114.4046525635     12.444     -0.008     -0.002    0.021       1 
128866.000    30.3766927681   114.4046525643     12.445      0.008     -0.019   -0.026       1 
128867.000    30.3766927639   114.4046525667     12.445     -0.009      0.035    0.028       1 
128868.000    30.3766927605   114.4046525714     12.444      0.011     -0.034   -0.033       1 
128869.000    30.3766927588   114.4046525755     12.444     -0.011      0.035    0.030       1 
128870.000    30.3766927575   114.4046525786     12.444      0.007     -0.016   -0.016       1 
128871.000    30.3766927583   114.4046525752     12.444     -0.001      0.011    0.001       1 
128872.000    30.3766927546   114.4046525722     12.444     -0.003     -0.004    0.012       1 
128873.000    30.3766927566   114.4046525636     12.443      0.008     -0.004   -0.029       1 
128874.000    30.3766927544   114.4046525603     12.442     -0.011      0.011    0.031       1 
128875.000    30.3766927559   114.4046525532     12.442      0.011     -0.024   -0.030       1 
128876.000    30.3766927570   114.4046525500     12.442     -0.006      0.035    0.018       1 
128877.000    30.3766927550   114.4046525456     12.443      0.004     -0.034   -0.010       1 
128878.000    30.3766927552   114.4046525417     12.445     -0.000      0.026   -0.001       1 
128879.000    30.3766927511   114.4046525445     12.444     -0.004     -0.008    0.012       1 
128880.000    30.3766927528   114.4046525469     12.444      0.002     -0.011   -0.017       1 
128881.000    30.3766927509   114.4046525492     12.444     -0.007      0.013    0.027       1 
128882.000    30.3766927560   114.4046525438     12.445      0.011     -0.033   -0.033       1 
128883.000    30.3766927563   114.4046525432     12.446     -0.008      0.014    0.015       1 
