GPSTime         Latitude        Longitude      H-Ell      Vel-N      Vel-E    Vel-U       Q  
(sec)            (Deg)            (Deg)        (m)      (m/s)      (m/s)    (m/s)          
364413.000    22.6495114137   113.8266215314     14.407      4.272     13.370    0.276       0 
364414.000    22.6495510901   113.8267526674     14.681      4.452     13.587    0.261       0 
364415.000    22.6495913527   113.8268863829     14.946      4.463     13.895    0.273       0 
364416.000    22.6496313397   113.8270228247     15.281      4.444     14.134    0.421       0 
364417.000    22.6496714489   113.8271613463     15.754      4.449     14.341    0.561       2 
364418.000    22.6497107744   113.8273016013     16.346      4.310     14.485    0.660       2 
364419.000    22.6497498361   113.8274427125     17.067      4.327     14.498    0.841       2 
364420.000    22.6497886107   113.8275838364     17.937      4.325     14.479    0.841       2 
364421.000    22.6498275163   113.8277236512     18.806      4.254     14.108    0.815       2 
364422.000    22.6498656508   113.8278578278     19.631      4.142     13.496    0.829       2 
364423.000    22.6499017005   113.8279864378     20.441      3.859     12.928    0.777       2 
364424.000    22.6499336285   113.8281090851     21.207      3.285     12.343    0.746       2 
364425.000    22.6499586679   113.8282248469     21.896      2.508     11.556    0.686       2 
364426.000    22.6499775478   113.8283320228     22.526      1.913     10.557    0.596       1 
364427.000    22.6499924966   113.8284305890     23.117      1.550      9.856    0.576       1 
364428.000    22.6500056256   113.8285249512     23.654      1.457      9.609    0.514       1 
364429.000    22.6500200669   113.8286166781     24.218      1.640      9.188    0.572       1 
364430.000    22.6500370408   113.8287052387     24.739      1.915      8.902    0.486       1 
364431.000    22.6500557710   113.8287900557     25.280      2.017      8.417    0.562       1 
364432.000    22.6500747471   113.8288721251     25.834      2.134      8.518    0.571       1 
364433.000    22.6500940157   113.8289559378     26.420      2.133      8.647    0.598       1 
364434.000    22.6501118018   113.8290381774     27.019      1.876      8.382    0.582       1 
364435.000    22.6501267407   113.8291195145     27.549      1.605      8.478    0.476       1 
364436.000    22.6501396611   113.8292038582     28.039      1.431      8.933    0.474       1 
364437.000    22.6501511634   113.8292920163     28.516      1.277      9.233    0.392       1 
364438.000    22.6501614751   113.8293824569     28.933      1.116      9.437    0.407       1 
364439.000    22.6501686478   113.8294730874     29.265      0.686      9.262    0.295       1 
364440.000    22.6501708583   113.8295600397     29.556      0.143      8.723    0.279       1 
364441.000    22.6501675188   113.8296410923     29.751     -0.473      8.228    0.106       1 
364442.000    22.6501563823   113.8297173661     29.794     -1.308      7.853   -0.033       1 
364443.000    22.6501392138   113.8297898080     29.726     -1.922      7.218   -0.125       1 
364444.000    22.6501215649   113.8298519495     29.624     -1.663      5.613   -0.095       1 
364445.000    22.6501066670   113.8299006243     29.536     -1.509      4.588   -0.076       1 
364446.000    22.6500946518   113.8299401071     29.451     -1.230      3.592   -0.081       1 
364447.000    22.6500865151   113.8299742288     29.389     -0.906      3.015   -0.012       1 
364448.000    22.6500812430   113.8300042124     29.342     -0.629      2.825   -0.054       1 
364449.000    22.6500770073   113.8300310699     29.307     -0.477      2.563   -0.033       1 
364450.000    22.6500735716   113.8300535733     29.274     -0.346      2.036   -0.009       1 
364451.000    22.6500709920   113.8300706060     29.254     -0.265      1.453   -0.017       1 
364452.000    22.6500692684   113.8300820420     29.239     -0.150      0.928   -0.008       1 
364453.000    22.6500683203   113.8300881932     29.233     -0.046      0.319   -0.011       1 
364454.000    22.6500682117   113.8300889498     29.235      0.001     -0.007    0.003       1 
364455.000    22.6500682252   113.8300889241     29.235     -0.000     -0.006   -0.000       1 
364456.000    22.6500682303   113.8300889039     29.235      0.001     -0.001   -0.010       1 
364457.000    22.6500682330   113.8300888920     29.234     -0.000     -0.003   -0.008       1 
364458.000    22.6500682333   113.8300888865     29.232      0.002      0.006    0.002       1 
364459.000    22.6500682332   113.8300889230     29.231     -0.007      0.020   -0.006       1 
364460.000    22.6500680163   113.8300904600     29.228     -0.050      0.286   -0.004       1 
364461.000    22.6500674350   113.8300943259     29.223     -0.089      0.507   -0.006       1 
364462.000    22.6500659143   113.8301050848     29.214     -0.313      1.881   -0.036       1 
364463.000    22.6500632443   113.8301258912     29.187     -0.350      2.164   -0.018       1 
364464.000    22.6500611455   113.8301459757     29.164     -0.238      1.760   -0.009       1 
364465.000    22.6500600156   113.8301588357     29.150     -0.086      0.732   -0.011       1 
364466.000    22.6500598608   113.8301609835     29.152      0.006     -0.009   -0.002       1 
364467.000    22.6500598813   113.8301609761     29.155     -0.000     -0.002    0.003       1 
364468.000    22.6500598983   113.8301609678     29.159     -0.001     -0.009   -0.008       1 
364469.000    22.6500599088   113.8301609891     29.161     -0.007      0.019    0.004       1 
364470.000    22.6500597810   113.8301627086     29.164     -0.073      0.593   -0.013       1 
364471.000    22.6500587912   113.8301733357     29.156     -0.156      1.470   -0.017       1 
364472.000    22.6500571664   113.8301882477     29.135     -0.166      1.463   -0.015       1 
364473.000    22.6500557148   113.8302004851     29.124     -0.131      1.153   -0.021       1 
364474.000    22.6500545236   113.8302101962     29.110     -0.101      0.836    0.004       1 
364475.000    22.6500538105   113.8302159222     29.102     -0.033      0.275    0.010       1 
364476.000    22.6500537583   113.8302164800     29.103     -0.009      0.066   -0.007       1 
364477.000    22.6500535086   113.8302186102     29.100     -0.056      0.383    0.005       1 
364478.000    22.6500527689   113.8302254626     29.091     -0.138      1.074   -0.014       1 
364479.000    22.6500513801   113.8302384168     29.077     -0.185      1.455    0.007       1 
364480.000    22.6500499127   113.8302525399     29.056     -0.174      1.398   -0.022       1 
364481.000    22.6500486483   113.8302651575     29.039     -0.124      1.049   -0.004       1 
364482.000    22.6500478927   113.8302729893     29.024     -0.065      0.553   -0.007       1 
364483.000    22.6500475944   113.8302761483     29.016     -0.009      0.100   -0.005       1 
364484.000    22.6500476011   113.8302762841     29.015     -0.002      0.002   -0.001       1 
364485.000    22.6500474989   113.8302776319     29.015     -0.034      0.343   -0.006       1 
364486.000    22.6500468303   113.8302846649     29.008     -0.127      1.149   -0.012       1 
364487.000    22.6500454762   113.8302985537     28.990     -0.166      1.599   -0.021       1 
364488.000    22.6500437163   113.8303132314     28.967     -0.134      1.286   -0.030       1 
364489.000    22.6500427260   113.8303212004     28.955     -0.043      0.406    0.002       1 
364490.000    22.6500423374   113.8303243246     28.952     -0.021      0.196   -0.007       1 
364491.000    22.6500422728   113.8303249029     28.955     -0.010      0.086   -0.012       1 
364492.000    22.6500419965   113.8303270175     28.953     -0.042      0.311    0.004       1 
364493.000    22.6500416367   113.8303296822     28.947     -0.021      0.193   -0.015       1 
364494.000    22.6500415650   113.8303301563     28.945     -0.004     -0.020   -0.005       1 
364495.000    22.6500415543   113.8303301512     28.944     -0.001      0.001   -0.004       1 
364496.000    22.6500415505   113.8303301473     28.943     -0.003     -0.003   -0.011       1 
364497.000    22.6500414777   113.8303306982     28.940     -0.024      0.163    0.005       1 
364498.000    22.6500409724   113.8303344050     28.933     -0.084      0.648   -0.006       1 
364499.000    22.6500397955   113.8303439233     28.914     -0.182      1.275   -0.036       1 
364500.000    22.6500382621   113.8303586241     28.879     -0.208      1.637   -0.040       1 
364501.000    22.6500365168   113.8303754531     28.841     -0.202      1.767   -0.042       1 
364502.000    22.6500348092   113.8303909386     28.810     -0.141      1.305   -0.036       1 
364503.000    22.6500337642   113.8303994090     28.793     -0.063      0.511   -0.004       1 
364504.000    22.6500334717   113.8304018989     28.791     -0.023      0.167   -0.001       1 
364505.000    22.6500331347   113.8304046845     28.789     -0.052      0.431   -0.012       1 
364506.000    22.6500323241   113.8304110274     28.783     -0.108      0.909   -0.022       1 
364507.000    22.6500308590   113.8304220725     28.766     -0.172      1.324   -0.025       1 
364508.000    22.6500289245   113.8304357738     28.744     -0.218      1.447   -0.010       1 
364509.000    22.6500269355   113.8304499106     28.723     -0.217      1.424   -0.004       1 
364510.000    22.6500250039   113.8304628835     28.705     -0.189      1.233   -0.032       1 
364511.000    22.6500233001   113.8304737702     28.691     -0.150      1.011   -0.008       1 
364512.000    22.6500219279   113.8304820680     28.679     -0.084      0.582   -0.007       1 
364513.000    22.6500215887   113.8304841951     28.678     -0.000     -0.006   -0.001       1 
364514.000    22.6500215985   113.8304841963     28.680     -0.003     -0.003    0.012       1 
364515.000    22.6500215920   113.8304842722     28.680     -0.010      0.046   -0.009       1 
364516.000    22.6500212806   113.8304861918     28.679     -0.064      0.400   -0.000       1 
364517.000    22.6500201597   113.8304927927     28.671     -0.164      1.001   -0.015       1 
364518.000    22.6500182198   113.8305040000     28.651     -0.218      1.286   -0.041       1 
364519.000    22.6500160709   113.8305157408     28.632     -0.179      1.060   -0.019       1 
364520.000    22.6500144820   113.8305241290     28.619     -0.130      0.679   -0.026       1 
364521.000    22.6500134696   113.8305295137     28.612     -0.100      0.554   -0.006       1 
364522.000    22.6500122810   113.8305355897     28.603     -0.137      0.659   -0.012       1 
364523.000    22.6500111903   113.8305409185     28.593     -0.074      0.366   -0.019       1 
364524.000    22.6500109561   113.8305420323     28.592     -0.000     -0.002    0.006       1 
364525.000    22.6500109155   113.8305422499     28.594     -0.021      0.099    0.002       1 
364526.000    22.6500103558   113.8305449518     28.593     -0.094      0.474   -0.016       1 
364527.000    22.6500089516   113.8305523448     28.587     -0.228      1.002   -0.005       1 
364528.000    22.6500070055   113.8305646392     28.578     -0.289      1.369    0.021       1 
364529.000    22.6500048892   113.8305777909     28.561     -0.257      1.207   -0.010       1 
364530.000    22.6500034844   113.8305864179     28.553     -0.081      0.447    0.001       1 
364531.000    22.6500033170   113.8305876238     28.552      0.000     -0.006   -0.007       1 
364532.000    22.6500033348   113.8305876307     28.551      0.000     -0.001   -0.002       1 
364533.000    22.6500033415   113.8305876356     28.550      0.002     -0.001    0.002       1 
364534.000    22.6500033490   113.8305876366     28.549     -0.003     -0.008   -0.003       1 
364535.000    22.6500033457   113.8305876325     28.548     -0.003     -0.010   -0.011       1 
364536.000    22.6500033412   113.8305876334     28.547      0.000     -0.000   -0.002       1 
364537.000    22.6500033403   113.8305876372     28.546     -0.003     -0.011   -0.010       1 
364538.000    22.6500033377   113.8305876354     28.546     -0.002     -0.006    0.001       1 
364539.000    22.6500033355   113.8305876297     28.545     -0.000      0.001    0.003       1 
364540.000    22.6500033312   113.8305876231     28.545      0.000      0.002   -0.005       1 
364541.000    22.6500033270   113.8305876215     28.544     -0.001      0.003    0.005       1 
364542.000    22.6500033212   113.8305876237     28.544     -0.002     -0.000   -0.011       1 
364543.000    22.6500033169   113.8305876252     28.543     -0.003     -0.010   -0.003       1 
364544.000    22.6500033174   113.8305876266     28.544     -0.002     -0.007    0.006       1 
364545.000    22.6500033193   113.8305876275     28.544      0.001     -0.004   -0.011       1 
364546.000    22.6500033207   113.8305876282     28.545     -0.001     -0.004   -0.000       1 
364547.000    22.6500033183   113.8305876290     28.546     -0.005     -0.014    0.004       1 
364548.000    22.6500033126   113.8305876313     28.548     -0.004     -0.005   -0.004       1 
364549.000    22.6500033020   113.8305876328     28.550     -0.004     -0.005    0.006       1 
364550.000    22.6500032895   113.8305876362     28.553     -0.002     -0.000    0.002       1 
364551.000    22.6500032758   113.8305876389     28.557     -0.002     -0.009   -0.007       1 
364552.000    22.6500032654   113.8305876375     28.560      0.000      0.001   -0.005       1 
364553.000    22.6500032614   113.8305876344     28.563     -0.000     -0.005    0.002       1 
364554.000    22.6500032643   113.8305876294     28.564     -0.001     -0.005   -0.003       1 
364555.000    22.6500032718   113.8305876247     28.565     -0.003     -0.007   -0.003       1 
364556.000    22.6500032744   113.8305876280     28.566      0.001      0.007    0.006       1 
364557.000    22.6500032708   113.8305876344     28.567      0.001     -0.000   -0.008       1 
364558.000    22.6500032700   113.8305876387     28.567     -0.000     -0.001    0.002       1 
364559.000    22.6500032692   113.8305876408     28.567     -0.003     -0.010    0.002       1 
364560.000    22.6500032709   113.8305876405     28.568      0.003      0.005   -0.011       1 
364561.000    22.6500032701   113.8305876392     28.568     -0.002     -0.006    0.004       1 
364562.000    22.6500032688   113.8305876442     28.569      0.001      0.002    0.001       1 
364563.000    22.6500032688   113.8305876536     28.570     -0.001     -0.004   -0.007       1 
364564.000    22.6500032733   113.8305876589     28.571      0.000      0.001   -0.003       1 
364565.000    22.6500032798   113.8305876617     28.570      0.004      0.004    0.005       1 
364566.000    22.6500032958   113.8305876547     28.568     -0.001     -0.018   -0.004       1 
364567.000    22.6500033105   113.8305876433     28.566      0.002      0.000   -0.013       1 
364568.000    22.6500033189   113.8305876309     28.562      0.004      0.009   -0.001       1 
364569.000    22.6500033210   113.8305876244     28.560     -0.002     -0.008   -0.002       1 
364570.000    22.6500033225   113.8305876234     28.557     -0.006     -0.018   -0.007       1 
364571.000    22.6500033222   113.8305876283     28.555     -0.001      0.003    0.004       1 
364572.000    22.6500033203   113.8305876387     28.553      0.002      0.007   -0.004       1 
364573.000    22.6500033196   113.8305876506     28.552     -0.002     -0.004   -0.006       1 
364574.000    22.6500033180   113.8305876589     28.550     -0.002     -0.006   -0.002       1 
364575.000    22.6500033185   113.8305876610     28.548      0.001      0.002   -0.010       1 
364576.000    22.6500033179   113.8305876586     28.546     -0.004     -0.013   -0.004       1 
364577.000    22.6500033186   113.8305876566     28.545     -0.004     -0.010    0.005       1 
364578.000    22.6500033209   113.8305876542     28.546      0.000      0.003   -0.008       1 
364579.000    22.6500033229   113.8305876512     28.547      0.002      0.006    0.001       1 
364580.000    22.6500033226   113.8305876470     28.548     -0.001     -0.002    0.007       1 
364581.000    22.6500033162   113.8305876419     28.549     -0.005     -0.016   -0.009       1 
364582.000    22.6500033063   113.8305876389     28.550      0.002      0.006   -0.002       1 
364583.000    22.6500032980   113.8305876382     28.551     -0.003     -0.005    0.008       1 
364584.000    22.6500032877   113.8305876409     28.553     -0.002     -0.003    0.005       1 
364585.000    22.6500032755   113.8305876450     28.556     -0.006     -0.013    0.005       1 
364586.000    22.6500032610   113.8305876539     28.559     -0.001      0.007    0.009       1 
364587.000    22.6500032509   113.8305876661     28.562     -0.002     -0.002   -0.002       1 
364588.000    22.6500032497   113.8305876690     28.562     -0.004     -0.020   -0.014       1 
364589.000    22.6500032623   113.8305876609     28.559      0.002     -0.000    0.001       1 
364590.000    22.6500031639   113.8305883601     28.552     -0.030      0.175   -0.020       1 
364591.000    22.6500026506   113.8305914992     28.542     -0.085      0.503   -0.023       1 
364592.000    22.6500013814   113.8306001452     28.517     -0.230      1.186   -0.029       1 
364593.000    22.6499997571   113.8306138909     28.489     -0.247      1.468   -0.029       2 
364594.000    22.6499977256   113.8306292439     28.455     -0.243      1.624   -0.048       2 
364595.000    22.6499952210   113.8306451624     28.420     -0.242      1.642   -0.027       2 
364596.000    22.6499931171   113.8306592082     28.378     -0.185      1.071   -0.043       2 
364597.000    22.6499919234   113.8306673365     28.341     -0.119      0.610   -0.044       3 
364598.000    22.6499913604   113.8306712950     28.306     -0.043      0.285   -0.028       3 
364599.000    22.6499910055   113.8306737900     28.272     -0.046      0.290   -0.044       3 
364600.000    22.6499906025   113.8306766571     28.236     -0.019      0.124   -0.038       3 
364601.000    22.6499906552   113.8306766612     28.203      0.004     -0.013   -0.030       3 
364602.000    22.6499907038   113.8306766374     28.169      0.005     -0.001   -0.045       2 
364603.000    22.6499907387   113.8306766295     28.136      0.002      0.007   -0.040       2 
364604.000    22.6499905939   113.8306777170     28.103     -0.040      0.247   -0.031       2 
364605.000    22.6499896200   113.8306825953     28.068     -0.118      0.869   -0.047       2 
364606.000    22.6499868639   113.8306949751     28.023     -0.308      1.833   -0.088       0 
364607.000    22.6499818792   113.8307172000     27.971     -0.654      2.862   -0.066       0 
364608.000    22.6499749717   113.8307503391     27.904     -0.901      4.010   -0.049       0 
364609.000    22.6499666361   113.8307925290     27.831     -1.011      4.498   -0.071       0 
364610.000    22.6499580849   113.8308383869     27.779     -0.966      5.023   -0.042       2 
364611.000    22.6499456682   113.8308905056     27.717     -1.451      5.864   -0.074       2 
364612.000    22.6499280873   113.8309465786     27.625     -1.955      5.947   -0.074       2 
364613.000    22.6499059733   113.8310037776     27.571     -2.541      6.228   -0.062       2 
364614.000    22.6498773516   113.8310626744     27.490     -3.279      6.366   -0.118       2 
364615.000    22.6498419213   113.8311232884     27.366     -4.079      6.594   -0.136       2 
364616.000    22.6497992403   113.8311858326     27.241     -4.947      6.729   -0.160       2 
364617.000    22.6497513769   113.8312508695     27.051     -5.303      6.994   -0.193       2 
364618.000    22.6496949145   113.8313127725     26.880     -6.512      6.578   -0.190       2 
