
   GPSTime         Latitude        Longitude      H-Ell      Vel-N      Vel-E    Vel-U       Q  
     (sec)            (Deg)            (Deg)        (m)      (m/s)      (m/s)    (m/s)          
305591.000    40.1992809139   116.2016068344     49.585      0.359     -5.427   -0.027       1 
305592.000    40.1992841343   116.2015438594     49.583      0.361     -5.293    0.012       1 
305593.000    40.1992876405   116.2014816678     49.592      0.413     -5.349    0.013       1 
305594.000    40.1992912219   116.2014189023     49.614      0.377     -5.300    0.028       1 
305595.000    40.1992946181   116.2013579312     49.638      0.370     -5.079    0.025       1 
305596.000    40.1992978410   116.2012996811     49.653      0.348     -4.868    0.014       1 
305597.000    40.1993009425   116.2012425721     49.667      0.359     -4.885    0.019       1 
305598.000    40.1993039989   116.2011850418     49.678      0.328     -4.930    0.008       1 
305599.000    40.1993069649   116.2011263550     49.685      0.339     -5.052    0.010       1 
305600.000    40.1993099484   116.2010670969     49.699      0.331     -5.002    0.015       1 
305601.000    40.1993128778   116.2010088780     49.711      0.319     -4.880    0.013       1 
305602.000    40.1993157833   116.2009520005     49.724      0.323     -4.881    0.026       1 
305603.000    40.1993187690   116.2008934922     49.739      0.329     -5.045    0.008       1 
305604.000    40.1993219529   116.2008322763     49.752      0.381     -5.454    0.017       1 
305605.000    40.1993256543   116.2007663360     49.765      0.436     -5.742    0.006       1 
305606.000    40.1993297964   116.2006975522     49.777      0.493     -5.921    0.004       1 
305607.000    40.1993341213   116.2006290094     49.791      0.482     -5.725    0.014       1 
305608.000    40.1993384854   116.2005633734     49.816      0.497     -5.456    0.017       1 
305609.000    40.1993427787   116.2005007280     49.825      0.451     -5.211   -0.008       1 
305610.000    40.1993463654   116.2004405460     49.825      0.352     -5.026   -0.009       1 
305611.000    40.1993494127   116.2003827723     49.835      0.341     -4.815   -0.006       1 
305612.000    40.1993525593   116.2003254887     49.854      0.363     -4.934    0.020       1 
305613.000    40.1993557091   116.2002682391     49.881      0.359     -4.795    0.019       1 
305614.000    40.1993588476   116.2002115605     49.904      0.364     -4.905    0.020       1 
305615.000    40.1993621339   116.2001529266     49.921      0.372     -5.001    0.009       1 
305616.000    40.1993654154   116.2000945962     49.933      0.352     -4.944    0.017       1 
305617.000    40.1993683879   116.2000355900     49.947      0.309     -5.075    0.017       1 
305618.000    40.1993710394   116.1999766562     49.960      0.272     -4.946    0.019       1 
305619.000    40.1993734848   116.1999187113     49.972      0.273     -4.964    0.007       1 
305620.000    40.1993759960   116.1998608438     49.983      0.276     -4.848    0.006       1 
305621.000    40.1993786209   116.1998045238     49.992      0.296     -4.797    0.003       1 
305622.000    40.1993814209   116.1997478727     50.002      0.318     -4.793    0.009       1 
305623.000    40.1993843410   116.1996922160     50.020      0.335     -4.751    0.018       1 
305624.000    40.1993875185   116.1996347645     50.042      0.379     -5.000    0.027       1 
305625.000    40.1993908284   116.1995765182     50.053      0.365     -4.868   -0.006       1 
305626.000    40.1993939581   116.1995204632     50.056      0.330     -4.695    0.018       1 
305627.000    40.1993968636   116.1994650594     50.069      0.314     -4.779    0.026       1 
305628.000    40.1993997979   116.1994077710     50.091      0.334     -4.965    0.010       1 
305629.000    40.1994028492   116.1993496006     50.109      0.339     -4.927    0.027       1 
305630.000    40.1994059242   116.1992913857     50.127      0.347     -4.998    0.022       1 
305631.000    40.1994090848   116.1992327663     50.140      0.348     -4.966    0.020       1 
305632.000    40.1994122007   116.1991738643     50.154      0.346     -5.092    0.014       1 
305633.000    40.1994154146   116.1991133580     50.165      0.367     -5.185    0.016       1 
305634.000    40.1994187946   116.1990522511     50.178      0.378     -5.234    0.012       1 
305635.000    40.1994221607   116.1989908929     50.194      0.366     -5.185    0.025       1 
305636.000    40.1994254085   116.1989304536     50.206      0.362     -5.145   -0.002       1 
305637.000    40.1994286942   116.1988696065     50.216      0.373     -5.212    0.017       1 
305638.000    40.1994320011   116.1988091755     50.235      0.370     -5.052    0.016       1 
305639.000    40.1994352418   116.1987503480     50.254      0.364     -5.011    0.008       1 
305640.000    40.1994385255   116.1986909479     50.274      0.363     -5.087    0.015       1 
305641.000    40.1994418115   116.1986309550     50.290      0.369     -5.147    0.004       1 
305642.000    40.1994451087   116.1985707614     50.302      0.370     -5.112    0.003       1 
305643.000    40.1994483764   116.1985116224     50.315      0.354     -4.931    0.014       1 
305644.000    40.1994514674   116.1984550347     50.330      0.336     -4.701    0.012       1 
305645.000    40.1994544116   116.1984010484     50.346      0.323     -4.491    0.014       1 
305646.000    40.1994572958   116.1983490282     50.361      0.313     -4.437    0.016       1 
305647.000    40.1994602895   116.1982954993     50.380      0.342     -4.681    0.019       1 
305648.000    40.1994633182   116.1982391804     50.394      0.346     -4.916    0.012       1 
305649.000    40.1994663195   116.1981787759     50.407      0.337     -5.358    0.017       1 
305650.000    40.1994694058   116.1981143888     50.423      0.332     -5.578    0.008       1 
305651.000    40.1994723866   116.1980475867     50.437      0.346     -5.799    0.003       1 
305652.000    40.1994754698   116.1979790794     50.445      0.362     -5.871    0.002       1 
305653.000    40.1994787675   116.1979092131     50.455      0.400     -6.041    0.015       1 
305654.000    40.1994824420   116.1978356484     50.470      0.427     -6.438    0.016       1 
305655.000    40.1994861961   116.1977591802     50.486      0.434     -6.581    0.009       1 
305656.000    40.1994900830   116.1976813577     50.497      0.430     -6.714    0.022       1 
305657.000    40.1994941932   116.1976017880     50.526      0.464     -6.883    0.037       1 
305658.000    40.1994985956   116.1975189654     50.559      0.495     -7.204    0.022       1 
305659.000    40.1995031346   116.1974320782     50.582      0.529     -7.620    0.025       1 
305660.000    40.1995080665   116.1973396961     50.606      0.575     -8.092    0.018       1 
305661.000    40.1995133994   116.1972418261     50.633      0.604     -8.582    0.013       1 
305662.000    40.1995190560   116.1971391383     50.640      0.649     -8.922   -0.002       1 
305663.000    40.1995248587   116.1970319795     50.651      0.626     -9.266    0.038       1 
305664.000    40.1995301126   116.1969233728     50.682      0.529     -9.204    0.042       1 
305665.000    40.1995348955   116.1968176992     50.730      0.606     -8.686   -0.007       1 
305666.000    40.1995400253   116.1967222065     50.756      0.420     -7.679    0.106       1 
305667.000    40.1995447748   116.1966363633     50.739      0.523     -6.934   -0.009       1 
305668.000    40.1995491091   116.1965590979     50.716      0.462     -6.203   -0.022       1 
305669.000    40.1995532519   116.1964910291     50.705      0.425     -5.343   -0.006       1 
305670.000    40.1995567021   116.1964346946     50.697      0.323     -4.200    0.002       1 
305671.000    40.1995593191   116.1963927499     50.698      0.243     -3.014   -0.006       1 
305672.000    40.1995612802   116.1963621996     50.703      0.176     -2.183    0.003       1 
305673.000    40.1995626352   116.1963412601     50.706      0.139     -1.479   -0.003       1 
305674.000    40.1995636088   116.1963266963     50.710      0.086     -1.024    0.002       1 
305675.000    40.1995641893   116.1963177774     50.713      0.036     -0.441    0.002       1 
305676.000    40.1995643091   116.1963159590     50.714     -0.003      0.003    0.001       1 
305677.000    40.1995642988   116.1963159587     50.715     -0.001     -0.001    0.000       1 
305678.000    40.1995642851   116.1963159538     50.718     -0.007     -0.004    0.002       1 
305679.000    40.1995642736   116.1963159493     50.720     -0.001      0.003    0.002       1 
305680.000    40.1995642686   116.1963159414     50.721     -0.001     -0.003    0.002       1 
305681.000    40.1995642697   116.1963159338     50.721      0.002     -0.001   -0.002       1 
305682.000    40.1995642781   116.1963159297     50.721     -0.004     -0.000   -0.000       1 
305683.000    40.1995642864   116.1963159327     50.719      0.002      0.004   -0.002       1 
305684.000    40.1995642908   116.1963159411     50.717     -0.004     -0.003    0.001       1 
305685.000    40.1995642988   116.1963159527     50.716      0.004      0.004   -0.005       1 
305686.000    40.1995643102   116.1963159340     50.713      0.002     -0.027   -0.002       1 
305687.000    40.1995643822   116.1963150672     50.712      0.011     -0.082   -0.001       1 
305688.000    40.1995644175   116.1963146357     50.710      0.002      0.005   -0.001       1 
305689.000    40.1995644142   116.1963146389     50.709     -0.003     -0.000    0.002       1 
305690.000    40.1995644047   116.1963146432     50.710      0.003      0.005   -0.000       1 
305691.000    40.1995643920   116.1963146449     50.711     -0.001      0.001   -0.000       1 
305692.000    40.1995643739   116.1963146408     50.714     -0.007     -0.001    0.004       1 
305693.000    40.1995643535   116.1963146325     50.717     -0.003      0.000    0.004       1 
305694.000    40.1995643388   116.1963146257     50.719     -0.001     -0.004    0.003       1 
305695.000    40.1995643382   116.1963146305     50.720     -0.000     -0.002   -0.000       1 
305696.000    40.1995643448   116.1963146320     50.718      0.001      0.000   -0.004       1 
305697.000    40.1995645085   116.1963121640     50.717      0.036     -0.446   -0.003       1 
305698.000    40.1995652087   116.1963016120     50.717      0.111     -1.372    0.003       1 
305699.000    40.1995666912   116.1962776787     50.720      0.225     -2.826    0.015       1 
305700.000    40.1995687800   116.1962373233     50.725      0.234     -4.085   -0.011       1 
305701.000    40.1995707131   116.1961801274     50.731      0.209     -5.561    0.020       1 
305702.000    40.1995725309   116.1961074022     50.741      0.222     -6.932    0.012       1 
305703.000    40.1995748262   116.1960160569     50.742      0.252     -8.633    0.000       1 
305704.000    40.1995761134   116.1959056336     50.759      0.040    -10.147    0.019       1 
305705.000    40.1995756478   116.1957780814     50.772     -0.068    -11.542    0.007       1 
305706.000    40.1995755618   116.1956363053     50.764      0.115    -12.563   -0.027       1 
305707.000    40.1995791178   116.1954823564     50.772      0.688    -13.608    0.017       1 
305708.000    40.1995868331   116.1953174811     50.794      0.918    -14.333    0.013       1 
305709.000    40.1995947923   116.1951475187     50.800      0.892    -14.597    0.014       1 
305710.000    40.1996027205   116.1949745482     50.800      0.901    -14.809   -0.004       1 
305711.000    40.1996103713   116.1947994459     50.778      0.812    -15.016   -0.015       1 
305712.000    40.1996173036   116.1946221692     50.783      0.741    -15.186    0.020       1 
305713.000    40.1996235477   116.1944428367     50.787      0.677    -15.380   -0.011       1 
305714.000    40.1996291871   116.1942614146     50.791      0.575    -15.477    0.011       1 
305715.000    40.1996340045   116.1940798849     50.798      0.475    -15.387    0.009       1 
305716.000    40.1996379637   116.1939007767     50.805      0.411    -15.095   -0.007       1 
305717.000    40.1996417351   116.1937250710     50.785      0.419    -14.857   -0.021       1 
305718.000    40.1996453502   116.1935521651     50.776      0.381    -14.586   -0.002       1 
305719.000    40.1996486156   116.1933821594     50.766      0.330    -14.348   -0.039       1 
305720.000    40.1996510010   116.1932149422     50.735      0.199    -14.144    0.005       1 
305721.000    40.1996528679   116.1930504619     50.742      0.228    -13.912   -0.003       1 
305722.000    40.1996549044   116.1928874337     50.701      0.226    -13.850   -0.055       1 
305723.000    40.1996569388   116.1927248328     50.661      0.246    -13.868   -0.029       1 
305724.000    40.1996592812   116.1925624881     50.640      0.266    -13.756    0.009       1 
305725.000    40.1996617177   116.1924026462     50.639      0.344    -13.305   -0.089       1 
305726.000    40.1996642142   116.1922455565     50.578      0.265    -13.268    0.019       1 
305727.000    40.1996666554   116.1920910580     50.576      0.271    -13.051   -0.024       1 
305728.000    40.1996689580   116.1919388040     50.541      0.211    -12.877   -0.029       1 
305729.000    40.1996707463   116.1917885945     50.477      0.197    -12.746   -0.093       1 
305730.000    40.1996727396   116.1916384584     50.342      0.253    -12.857   -0.154       1 
305731.000    40.1996750230   116.1914862389     50.174      0.257    -13.003   -0.181       1 
305732.000    40.1996770909   116.1913339876     49.978      0.234    -12.927   -0.196       1 
305733.000    40.1996791043   116.1911821163     49.785      0.214    -12.975   -0.197       1 
305734.000    40.1996810099   116.1910287200     49.594      0.223    -13.105   -0.186       1 
305735.000    40.1996828198   116.1908748577     49.392      0.182    -13.071   -0.210       1 
305736.000    40.1996845122   116.1907217740     49.185      0.203    -12.995   -0.201       1 
305737.000    40.1996869462   116.1905695936     48.973      0.305    -12.933   -0.214       1 
305738.000    40.1996896044   116.1904182874     48.765      0.290    -12.842   -0.204       1 
305739.000    40.1996918146   116.1902676591     48.559      0.227    -12.834   -0.207       1 
305740.000    40.1996947711   116.1901160254     48.352      0.331    -13.015   -0.208       1 
305741.000    40.1996969780   116.1899625975     48.149      0.178    -13.122   -0.193       1 
305742.000    40.1996986146   116.1898077055     47.935      0.162    -13.260   -0.208       1 
305743.000    40.1996994848   116.1896513853     47.750      0.058    -13.370   -0.169       1 
305744.000    40.1997000683   116.1894938697     47.548      0.056    -13.460   -0.207       1 
305745.000    40.1997005344   116.1893364689     47.398      0.025    -13.363   -0.124       1 
305746.000    40.1997005599   116.1891804552     47.260     -0.031    -13.248   -0.148       1 
305747.000    40.1997003520   116.1890237338     47.152     -0.022    -13.463   -0.097       1 
305748.000    40.1997000446   116.1888654388     47.058     -0.042    -13.459   -0.117       1 
305749.000    40.1996992508   116.1887082489     46.968     -0.122    -13.316   -0.058       1 
305750.000    40.1996984877   116.1885512664     46.913     -0.062    -13.483   -0.046       1 
305751.000    40.1996980649   116.1883917938     46.859     -0.063    -13.565   -0.064       1 
305752.000    40.1996970905   116.1882333460     46.809     -0.163    -13.386   -0.045       1 
305753.000    40.1996953635   116.1880777476     46.767     -0.180    -13.083   -0.045       1 
305754.000    40.1996938984   116.1879265314     46.732     -0.149    -12.670   -0.035       1 
305755.000    40.1996924579   116.1877809797     46.686     -0.187    -12.095   -0.041       1 
305756.000    40.1996905524   116.1876426998     46.641     -0.232    -11.457   -0.037       1 
305757.000    40.1996887632   116.1875120128     46.615     -0.168    -10.802   -0.030       1 
305758.000    40.1996873238   116.1873889489     46.601     -0.158    -10.133    0.009       1 
305759.000    40.1996860431   116.1872750756     46.613     -0.142     -9.246    0.010       1 
305760.000    40.1996846457   116.1871720267     46.629     -0.170     -8.239    0.017       1 
305761.000    40.1996829299   116.1870817653     46.657     -0.218     -7.101    0.019       1 
305762.000    40.1996812418   116.1870050821     46.692     -0.153     -5.934    0.056       1 
305763.000    40.1996801317   116.1869423155     46.730     -0.101     -4.746    0.030       1 
305764.000    40.1996794509   116.1868935785     46.763     -0.061     -3.553    0.021       1 
305765.000    40.1996789954   116.1868560654     46.786     -0.044     -2.846    0.018       1 
305766.000    40.1996786760   116.1868271794     46.802     -0.037     -2.040    0.017       1 
305767.000    40.1996784202   116.1868080254     46.814     -0.024     -1.263    0.008       1 
305768.000    40.1996782710   116.1867980882     46.820     -0.006     -0.453    0.004       1 
305769.000    40.1996782252   116.1867946942     46.823     -0.006     -0.192    0.002       1 
305770.000    40.1996782066   116.1867925832     46.824     -0.006     -0.214    0.003       1 
305771.000    40.1996781686   116.1867896498     46.825     -0.003     -0.276    0.000       1 
305772.000    40.1996781106   116.1867853044     46.827     -0.019     -0.537    0.005       1 
305773.000    40.1996780238   116.1867771909     46.830     -0.013     -0.851    0.001       1 
305774.000    40.1996778461   116.1867633639     46.833     -0.032     -1.877    0.015       1 
305775.000    40.1996776251   116.1867332938     46.851     -0.025     -3.070    0.017       1 
305776.000    40.1996773615   116.1866915256     46.878     -0.037     -3.932    0.032       1 
305777.000    40.1996769649   116.1866420246     46.912     -0.038     -4.430    0.038       1 
305778.000    40.1996764724   116.1865903784     46.952     -0.058     -4.314    0.036       1 
305779.000    40.1996759339   116.1865406988     46.993     -0.074     -4.300    0.035       1 
305780.000    40.1996753506   116.1864836681     47.041     -0.061     -5.416    0.065       1 
305781.000    40.1996746815   116.1864135539     47.094     -0.106     -6.560    0.063       1 
305782.000    40.1996737039   116.1863317861     47.141     -0.099     -6.995    0.039       1 
305783.000    40.1996729932   116.1862513801     47.174     -0.061     -6.696    0.029       1 
305784.000    40.1996725726   116.1861746949     47.212     -0.039     -6.369    0.044       1 
305785.000    40.1996720530   116.1861008273     47.261     -0.076     -6.419    0.072       1 
305786.000    40.1996710790   116.1860189765     47.330     -0.130     -7.563    0.041       1 
305787.000    40.1996696335   116.1859234021     47.377     -0.183     -8.732    0.052       1 
305788.000    40.1996679603   116.1858153451     47.421     -0.179     -9.466    0.029       1 
305789.000    40.1996664165   116.1857045943     47.432     -0.164     -9.342   -0.031       1 
305790.000    40.1996653183   116.1855930615     47.438     -0.143     -9.869    0.046       1 
305791.000    40.1996638905   116.1854711755     47.492     -0.203    -10.942    0.039       1 
305792.000    40.1996619092   116.1853357262     47.526     -0.220    -12.130    0.029       1 
305793.000    40.1996606211   116.1851874610     47.542     -0.092    -12.933    0.021       1 
305794.000    40.1996596488   116.1850363046     47.542     -0.117    -12.779   -0.012       1 
