   GPSTime         Latitude        Longitude      H-Ell      Vel-N      Vel-E    Vel-U   Q
     (sec)            (Deg)            (Deg)        (m)      (m/s)      (m/s)    (m/s)  
 125704.00    30.5023631392   114.5232723716     35.078     -8.591     -4.820   -0.255       1 
 125705.00    30.5023182230   114.5231809787     34.858     -8.951     -5.096   -0.228       1 
 125706.00    30.5022713493   114.5230858536     34.598     -9.248     -5.302   -0.241       1 
 125707.00    30.5022217363   114.5229889445     34.353     -9.459     -5.669   -0.265       1 
 125708.00    30.5021690348   114.5228887581     34.094     -9.811     -5.986   -0.249       1 
 125709.00    30.5021145362   114.5227842108     33.836    -10.242     -6.081   -0.291       1 
 125710.00    30.5020588432   114.5226751207     33.572    -10.732     -6.280   -0.249       1 
 125711.00    30.5020018532   114.5225603899     33.273    -11.293     -6.409   -0.337       1 
 125712.00    30.5019435010   114.5224397984     32.953    -11.856     -6.564   -0.307       1 
 125713.00    30.5018838505   114.5223139726     32.641    -12.272     -6.646   -0.300       1 
 125714.00    30.5018248771   114.5221855608     32.324    -12.342     -6.472   -0.324       1 
 125715.00    30.5017673391   114.5220558685     32.026    -12.570     -6.377   -0.284       1 
 125716.00    30.5017095651   114.5219228663     31.759    -12.985     -6.492   -0.225       1 
 125717.00    30.5016505321   114.5217858911     31.530    -13.261     -6.561   -0.224       1 
 125718.00    30.5015918082   114.5216485884     31.347    -13.063     -6.414   -0.145       1 
 125719.00    30.5015359875   114.5215167657     31.171    -12.295     -6.005   -0.174       1 
 125720.00    30.5014831907   114.5213911224     31.057    -11.915     -5.761   -0.074       1 
 125721.00    30.5014321478   114.5212682686     31.020    -11.738     -5.559   -0.055       1 
 125722.00    30.5013821120   114.5211460438     31.009    -11.713     -5.542    0.019       1 
 125723.00    30.5013315328   114.5210242970     31.027    -11.640     -5.672    0.008       1 
 125724.00    30.5012796282   114.5209033328     31.077    -11.665     -5.844    0.092       1 
 125725.00    30.5012261968   114.5207808149     31.113    -11.914     -6.008    0.046       1 
 125726.00    30.5011713141   114.5206551712     31.184    -12.232     -6.141    0.094       1 
 125727.00    30.5011171010   114.5205271215     31.233    -12.264     -5.818    0.045       1 
 125728.00    30.5010666311   114.5203998982     31.290    -12.175     -5.419    0.069       1 
 125729.00    30.5010190963   114.5202727927     31.331    -12.217     -5.185    0.039       1 
 125730.00    30.5009732432   114.5201455362     31.371    -12.195     -5.022   -0.002       1 
 125731.00    30.5009283466   114.5200189432     31.394    -12.067     -4.961    0.030       1 
 125732.00    30.5008840744   114.5198940628     31.434    -11.896     -4.890    0.037       1 
 125733.00    30.5008402573   114.5197710849     31.470    -11.762     -4.826    0.027       1 
 125734.00    30.5007966121   114.5196496349     31.504    -11.605     -4.783    0.024       1 
 125735.00    30.5007533329   114.5195293367     31.544    -11.492     -4.781    0.023       1 
 125736.00    30.5007101481   114.5194093707     31.570    -11.597     -4.816   -0.008       1 
 125737.00    30.5006671288   114.5192871182     31.627    -11.861     -4.760    0.065       1 
 125738.00    30.5006243057   114.5191631649     31.711    -11.867     -4.743    0.064       1 
 125739.00    30.5005812576   114.5190398460     31.790    -11.863     -4.802    0.059       1 
 125740.00    30.5005372554   114.5189152915     31.876    -12.086     -4.941    0.065       1 
 125741.00    30.5004918039   114.5187877706     31.939    -12.403     -5.099    0.050       1 
 125742.00    30.5004456081   114.5186569140     32.042    -12.695     -5.144    0.097       1 
 125743.00    30.5003990324   114.5185235652     32.132    -12.844     -5.147    0.066       1 
 125744.00    30.5003525058   114.5183891498     32.207    -12.905     -5.147    0.063       1 
 125745.00    30.5003059152   114.5182543776     32.300    -12.922     -5.216    0.083       1 
 125746.00    30.5002587033   114.5181210542     32.380    -12.673     -5.190    0.064       1 
 125747.00    30.5002122971   114.5179903352     32.448    -12.408     -5.107    0.048       1 
 125748.00    30.5001671124   114.5178617547     32.511    -12.260     -4.965    0.088       1 
 125749.00    30.5001228281   114.5177349896     32.602    -12.080     -4.885    0.104       1 
 125750.00    30.5000789369   114.5176101507     32.704    -11.877     -4.865    0.107       1 
 125751.00    30.5000352758   114.5174871822     32.818    -11.693     -4.839    0.091       1 
 125752.00    30.4999918370   114.5173654952     32.893    -11.666     -4.832    0.091       1 
 125753.00    30.4999490901   114.5172445392     32.976    -11.591     -4.700    0.083       1 
 125754.00    30.4999074222   114.5171240831     33.050    -11.507     -4.579    0.060       1 
 125755.00    30.4998658624   114.5170049644     33.115    -11.381     -4.604    0.064       1 
 125756.00    30.4998244970   114.5168869858     33.175    -11.323     -4.575    0.067       1 
 125757.00    30.4997833163   114.5167697379     33.243    -11.283     -4.574    0.099       1 
 125758.00    30.4997416475   114.5166513941     33.361    -11.461     -4.695    0.066       1 
 125759.00    30.4996986393   114.5165301464     33.424    -11.802     -4.826    0.061       1 
 125760.00    30.4996550109   114.5164052243     33.488    -12.208     -4.897    0.086       1 
 125761.00    30.4996101990   114.5162759871     33.580    -12.614     -5.021    0.087       1 
 125762.00    30.4995647540   114.5161440071     33.664    -12.673     -5.012    0.090       1 
 125763.00    30.4995200675   114.5160129319     33.742    -12.481     -4.898    0.084       1 
 125764.00    30.4994761304   114.5158835915     33.828    -12.341     -4.882    0.078       1 
 125765.00    30.4994317660   114.5157558967     33.925    -12.184     -4.929    0.101       1 
 125766.00    30.4993870445   114.5156294591     34.006    -12.092     -4.964    0.079       1 
 125767.00    30.4993419455   114.5155027278     34.077    -12.290     -5.072    0.069       1 
 125768.00    30.4992954897   114.5153729138     34.153    -12.627     -5.247    0.076       1 
 125769.00    30.4992473800   114.5152390090     34.235    -13.026     -5.431    0.084       1 
 125770.00    30.4991977600   114.5151010959     34.325    -13.434     -5.555    0.096       1 
 125771.00    30.4991476593   114.5149591898     34.411    -13.765     -5.562    0.055       1 
 125772.00    30.4990977868   114.5148149161     34.470    -13.909     -5.535    0.084       1 
 125773.00    30.4990483994   114.5146694979     34.555    -13.967     -5.453    0.082       1 
 125774.00    30.4990001851   114.5145251463     34.651    -13.701     -5.254    0.129       1 
 125775.00    30.4989535157   114.5143847121     34.757    -13.284     -5.104    0.104       1 
 125776.00    30.4989080657   114.5142485597     34.841    -12.879     -4.942    0.068       1 
 125777.00    30.4988641157   114.5141164847     34.906    -12.530     -4.794    0.082       1 
 125778.00    30.4988218829   114.5139884126     34.995    -12.127     -4.589    0.099       1 
 125779.00    30.4987809594   114.5138646014     35.072    -11.683     -4.488    0.107       1 
 125780.00    30.4987403862   114.5137455062     35.163    -11.229     -4.511    0.088       1 
 125781.00    30.4986994139   114.5136297463     35.238    -11.045     -4.511    0.065       1 
 125782.00    30.4986588830   114.5135151401     35.285    -10.880     -4.461    0.034       1 
 125783.00    30.4986194407   114.5134034714     35.340    -10.532     -4.270    0.062       1 
 125784.00    30.4985817973   114.5132959291     35.391    -10.124     -4.073    0.006       1 
 125785.00    30.4985458330   114.5131925707     35.431     -9.792     -3.930    0.070       1 
 125786.00    30.4985106312   114.5130908422     35.527     -9.846     -3.967    0.158       1 
 125787.00    30.4984746368   114.5129868883     35.587    -10.069     -3.969    0.026       1 
 125788.00    30.4984389568   114.5128830101     35.531     -9.842     -3.932   -0.046       1 
 125789.00    30.4984035289   114.5127826015     35.473     -9.446     -3.924   -0.053       1 
 125790.00    30.4983681856   114.5126858294     35.431     -9.272     -3.939   -0.049       1 
 125791.00    30.4983314116   114.5125879154     35.370     -9.549     -4.190   -0.059       1 
 125792.00    30.4982926564   114.5124864726     35.319     -9.915     -4.392   -0.060       1 
 125793.00    30.4982521424   114.5123815105     35.259    -10.185     -4.560   -0.057       1 
 125794.00    30.4982113391   114.5122765832     35.213     -9.928     -4.462   -0.062       1 
 125795.00    30.4981720841   114.5121747977     35.171     -9.596     -4.244   -0.038       1 
 125796.00    30.4981350373   114.5120761249     35.121     -9.339     -3.949   -0.034       1 
 125797.00    30.4981004601   114.5119793231     35.057     -9.311     -3.790   -0.083       1 
 125798.00    30.4980668201   114.5118826820     34.994     -9.183     -3.661   -0.041       1 
 125799.00    30.4980345516   114.5117891939     34.921     -8.684     -3.479   -0.071       1 
 125800.00    30.4980044621   114.5117022643     34.858     -7.993     -3.209   -0.052       1 
 125801.00    30.4979763955   114.5116211240     34.807     -7.599     -3.017   -0.061       1 
 125802.00    30.4979498815   114.5115441746     34.752     -7.218     -2.856   -0.027       1 
 125803.00    30.4979247768   114.5114711794     34.720     -6.867     -2.735   -0.043       1 
 125804.00    30.4979000499   114.5113990146     34.681     -7.009     -2.751   -0.058       1 
 125805.00    30.4978753922   114.5113263287     34.639     -6.834     -2.667   -0.032       1 
 125806.00    30.4978520901   114.5112570674     34.602     -6.522     -2.524   -0.040       1 
 125807.00    30.4978288121   114.5111889176     34.558     -6.586     -2.650   -0.053       1 
 125808.00    30.4978042349   114.5111194231     34.511     -6.765     -2.801   -0.033       1 
 125809.00    30.4977779504   114.5110471397     34.469     -7.162     -3.019   -0.038       1 
 125810.00    30.4977500933   114.5109705822     34.430     -7.464     -3.126   -0.048       1 
 125811.00    30.4977216873   114.5108920809     34.394     -7.621     -3.190   -0.050       1 
 125812.00    30.4976927252   114.5108117494     34.321     -7.828     -3.276   -0.081       1 
 125813.00    30.4976625242   114.5107282550     34.260     -8.148     -3.395   -0.045       1 
 125814.00    30.4976318833   114.5106427660     34.208     -8.354     -3.425   -0.042       1 
 125815.00    30.4976003257   114.5105534729     34.152     -8.834     -3.611   -0.041       1 
 125816.00    30.4975666620   114.5104587710     34.122     -9.388     -3.856   -0.024       1 
 125817.00    30.4975309605   114.5103588156     34.073     -9.776     -4.039   -0.062       1 
 125818.00    30.4974939495   114.5102561432     34.020     -9.877     -4.133   -0.049       1 
 125819.00    30.4974569488   114.5101549079     33.968     -9.566     -4.052   -0.040       1 
 125820.00    30.4974207625   114.5100572323     33.909     -9.191     -3.962   -0.062       1 
 125821.00    30.4973854538   114.5099632040     33.853     -8.872     -3.847   -0.038       1 
 125822.00    30.4973511685   114.5098727577     33.803     -8.507     -3.752   -0.028       1 
 125823.00    30.4973174835   114.5097847067     33.747     -8.381     -3.718   -0.059       1 
 125824.00    30.4972843011   114.5096988334     33.687     -8.094     -3.595   -0.049       1 
 125825.00    30.4972520975   114.5096164493     33.645     -7.728     -3.508   -0.070       1 
 125826.00    30.4972210459   114.5095379328     33.606     -7.352     -3.392   -0.010       1 
 125827.00    30.4971901716   114.5094622011     33.586     -7.243     -3.418   -0.036       1 
 125828.00    30.4971593722   114.5093868182     33.546     -7.255     -3.415   -0.024       1 
 125829.00    30.4971285972   114.5093098892     33.507     -7.606     -3.427   -0.056       1 
 125830.00    30.4970972293   114.5092286973     33.458     -7.897     -3.517   -0.041       1 
 125831.00    30.4970651595   114.5091466828     33.421     -7.783     -3.510   -0.035       1 
 125832.00    30.4970342135   114.5090675585     33.369     -7.422     -3.327   -0.058       1 
 125833.00    30.4970057003   114.5089938289     33.319     -6.634     -2.952   -0.012       1 
 125834.00    30.4969816355   114.5089307448     33.278     -5.440     -2.397   -0.034       1 
 125835.00    30.4969626992   114.5088800410     33.255     -4.306     -1.855   -0.028       1 
 125836.00    30.4969475310   114.5088391827     33.235     -3.558     -1.520   -0.013       1 
 125837.00    30.4969353427   114.5088063288     33.215     -2.800     -1.194   -0.016       1 
 125838.00    30.4969255711   114.5087798433     33.201     -2.386     -1.007   -0.020       1 
 125839.00    30.4969167208   114.5087555786     33.185     -2.391     -1.009   -0.009       1 
 125840.00    30.4969075853   114.5087301578     33.171     -2.488     -1.023   -0.017       1 
 125841.00    30.4968981071   114.5087033565     33.155     -2.726     -1.119   -0.021       1 
 125842.00    30.4968869795   114.5086721539     33.139     -3.259     -1.365   -0.025       1 
 125843.00    30.4968734304   114.5086355312     33.118     -3.752     -1.618   -0.035       1 
 125844.00    30.4968579531   114.5085943089     33.093     -4.156     -1.773   -0.029       1 
 125845.00    30.4968412482   114.5085494881     33.069     -4.453     -1.898   -0.026       1 
 125846.00    30.4968238966   114.5085026844     33.037     -4.554     -1.951   -0.030       1 
 125847.00    30.4968057031   114.5084533588     33.002     -4.979     -2.116   -0.041       1 
 125848.00    30.4967852809   114.5083981821     32.980     -5.621     -2.410   -0.006       1 
 125849.00    30.4967624647   114.5083376770     32.956     -5.934     -2.581   -0.031       1 
 125850.00    30.4967390141   114.5082748415     32.929     -6.054     -2.562   -0.038       1 
 125851.00    30.4967169267   114.5082135112     32.897     -5.799     -2.399   -0.040       1 
 125852.00    30.4966953154   114.5081518335     32.856     -6.076     -2.463   -0.035       1 
 125853.00    30.4966723665   114.5080873853     32.809     -6.307     -2.608   -0.046       1 
 125854.00    30.4966481584   114.5080195372     32.756     -6.798     -2.774   -0.040       1 
 125855.00    30.4966221948   114.5079465725     32.720     -7.213     -2.969   -0.028       1 
 125856.00    30.4965943475   114.5078682459     32.660     -7.805     -3.199   -0.087       1 
 125857.00    30.4965641131   114.5077833573     32.598     -8.532     -3.482   -0.071       1 
 125858.00    30.4965314186   114.5076908639     32.530     -9.215     -3.739   -0.084       1 
 125859.00    30.4964971011   114.5075924068     32.455     -9.611     -3.859   -0.063       1 
 125860.00    30.4964624311   114.5074913960     32.392     -9.742     -3.822   -0.071       1 
 125861.00    30.4964284455   114.5073894295     32.326     -9.804     -3.709   -0.087       1 
 125862.00    30.4963951963   114.5072870759     32.223     -9.878     -3.656   -0.089       1 
 125863.00    30.4963625856   114.5071842990     32.138     -9.917     -3.599   -0.079       1 
 125864.00    30.4963293822   114.5070797127     32.069    -10.213     -3.753   -0.083       1 
 125865.00    30.4962945625   114.5069711152     31.998    -10.596     -3.918   -0.118       1 
 125866.00    30.4962592461   114.5068595657     31.884    -10.777     -3.885   -0.077       1 
 125867.00    30.4962249449   114.5067474227     31.801    -10.759     -3.763   -0.092       1 
 125868.00    30.4961915414   114.5066348215     31.692    -10.896     -3.674   -0.105       1 
 125869.00    30.4961587432   114.5065206963     31.592    -10.998     -3.630   -0.106       1 
 125870.00    30.4961268692   114.5064058425     31.508    -11.010     -3.462   -0.072       1 
 125871.00    30.4960966273   114.5062922427     31.418    -10.808     -3.269   -0.111       1 
 125872.00    30.4960676322   114.5061799378     31.303    -10.798     -3.185   -0.105       1 
 125873.00    30.4960387689   114.5060676685     31.214    -10.790     -3.213   -0.077       1 
 125874.00    30.4960097737   114.5059550321     31.123    -10.857     -3.228   -0.081       1 
 125875.00    30.4959807194   114.5058419453     31.043    -10.873     -3.163   -0.089       1 
 125876.00    30.4959521346   114.5057285981     30.940    -10.977     -3.135   -0.106       1 
 125877.00    30.4959238742   114.5056122260     30.841    -11.429     -3.128   -0.106       1 
 125878.00    30.4958953327   114.5054904576     30.733    -11.926     -3.167   -0.090       1 
 125879.00    30.4958670448   114.5053655057     30.623    -12.045     -3.109   -0.126       1 
 125880.00    30.4958396832   114.5052406472     30.520    -11.890     -2.990   -0.068       1 
 125881.00    30.4958136133   114.5051184711     30.427    -11.600     -2.823   -0.090       1 
 125882.00    30.4957887948   114.5049991714     30.317    -11.339     -2.689   -0.093       1 
 125883.00    30.4957652546   114.5048827209     30.227    -11.042     -2.575   -0.092       1 
 125884.00    30.4957425292   114.5047697448     30.137    -10.643     -2.444   -0.062       1 
 125885.00    30.4957208775   114.5046616264     30.044    -10.136     -2.342   -0.112       1 
 125886.00    30.4957005039   114.5045585655     29.960     -9.646     -2.182   -0.095       1 
 125887.00    30.4956815433   114.5044607047     29.883     -9.172     -2.043   -0.073       1 
 125888.00    30.4956640170   114.5043669165     29.799     -8.812     -1.865   -0.112       1 
 125889.00    30.4956480333   114.5042770990     29.700     -8.378     -1.670   -0.080       1 
 125890.00    30.4956339721   114.5041938923     29.637     -7.679     -1.458   -0.043       1 
 125891.00    30.4956217131   114.5041176360     29.592     -6.974     -1.243   -0.052       1 
 125892.00    30.4956111051   114.5040494903     29.535     -6.156     -1.067   -0.066       1 
 125893.00    30.4956020865   114.5039887036     29.494     -5.520     -0.897   -0.046       1 
 125894.00    30.4955946244   114.5039347027     29.433     -4.825     -0.738   -0.058       1 
 125895.00    30.4955884014   114.5038876740     29.386     -4.176     -0.629   -0.038       1 
 125896.00    30.4955832846   114.5038483029     29.352     -3.399     -0.529   -0.039       1 
 125897.00    30.4955791669   114.5038163803     29.322     -2.816     -0.418   -0.028       1 
 125898.00    30.4955753415   114.5037863126     29.298     -2.972     -0.428   -0.021       1 
 125899.00    30.4955713695   114.5037553481     29.277     -2.885     -0.404   -0.028       1 
 125900.00    30.4955675657   114.5037253785     29.254     -2.901     -0.413   -0.021       1 
 125901.00    30.4955637446   114.5036952852     29.231     -2.969     -0.424   -0.039       1 
 125902.00    30.4955595023   114.5036614461     29.198     -3.588     -0.513   -0.021       1 
 125903.00    30.4955544534   114.5036208999     29.157     -4.198     -0.598   -0.041       1 
 125904.00    30.4955486927   114.5035744206     29.110     -4.705     -0.661   -0.032       1 
 125905.00    30.4955429160   114.5035273524     29.065     -4.213     -0.607   -0.041       1 
 125906.00    30.4955377334   114.5034839539     29.019     -4.200     -0.578   -0.059       1 
 125907.00    30.4955324074   114.5034387121     28.974     -4.493     -0.619   -0.043       1 
