   GPSTime         Latitude        Longitude      H-Ell      Vel-N      Vel-E    Vel-U   Q
     (sec)            (Deg)            (Deg)        (m)      (m/s)      (m/s)    (m/s)  
 125704.00    30.5023575423   114.5232695158     34.483     -8.589     -4.832   -0.273       1 
 125705.00    30.5023126577   114.5231781116     34.260     -8.961     -5.098   -0.223       1 
 125706.00    30.5022657352   114.5230830405     34.003     -9.254     -5.316   -0.256       1 
 125707.00    30.5022160772   114.5229862618     33.757     -9.458     -5.676   -0.274       1 
 125708.00    30.5021633506   114.5228860946     33.500     -9.816     -5.975   -0.230       1 
 125709.00    30.5021088686   114.5227815056     33.242    -10.237     -6.097   -0.315       1 
 125710.00    30.5020532012   114.5226723498     32.979    -10.714     -6.264   -0.243       1 
 125711.00    30.5019962734   114.5225575243     32.676    -11.282     -6.397   -0.330       1 
 125712.00    30.5019379410   114.5224368768     32.357    -11.840     -6.563   -0.318       1 
 125713.00    30.5018783192   114.5223109679     32.045    -12.261     -6.639   -0.300       1 
 125714.00    30.5018193851   114.5221824924     31.726    -12.337     -6.454   -0.304       1 
 125715.00    30.5017618580   114.5220527104     31.431    -12.568     -6.367   -0.272       1 
 125716.00    30.5017040873   114.5219196424     31.167    -12.978     -6.487   -0.222       1 
 125717.00    30.5016450538   114.5217826623     30.939    -13.259     -6.566   -0.232       1 
 125718.00    30.5015863548   114.5216453153     30.755    -13.043     -6.411   -0.156       1 
 125719.00    30.5015305561   114.5215134952     30.576    -12.301     -5.999   -0.161       1 
 125720.00    30.5014777365   114.5213877828     30.468    -11.910     -5.758   -0.074       1 
 125721.00    30.5014267148   114.5212648558     30.433    -11.745     -5.571   -0.065       1 
 125722.00    30.5013766984   114.5211425656     30.424    -11.729     -5.541    0.034       1 
 125723.00    30.5013260639   114.5210209162     30.442    -11.642     -5.678    0.003       1 
 125724.00    30.5012741523   114.5208999570     30.493    -11.665     -5.843    0.094       1 
 125725.00    30.5012206805   114.5207774900     30.531    -11.908     -6.011    0.037       1 
 125726.00    30.5011657948   114.5206518121     30.604    -12.217     -6.135    0.091       1 
 125727.00    30.5011116927   114.5205236539     30.647    -12.251     -5.811    0.044       1 
 125728.00    30.5010612982   114.5203962511     30.704    -12.175     -5.414    0.076       1 
 125729.00    30.5010138089   114.5202690580     30.746    -12.202     -5.174    0.042       1 
 125730.00    30.5009679951   114.5201417567     30.784    -12.198     -5.024   -0.003       1 
 125731.00    30.5009231080   114.5200151318     30.808    -12.069     -4.946    0.051       1 
 125732.00    30.5008788382   114.5198902655     30.847    -11.882     -4.886    0.032       1 
 125733.00    30.5008349997   114.5197673046     30.884    -11.745     -4.835    0.002       1 
 125734.00    30.5007913696   114.5196458545     30.916    -11.616     -4.808   -0.000       1 
 125735.00    30.5007480461   114.5195255939     30.960    -11.491     -4.788    0.011       1 
 125736.00    30.5007048859   114.5194055860     30.985    -11.588     -4.802    0.003       1 
 125737.00    30.5006618974   114.5192832507     31.043    -11.859     -4.761    0.062       1 
 125738.00    30.5006190723   114.5191593050     31.128    -11.889     -4.751    0.070       1 
 125739.00    30.5005759758   114.5190360082     31.211    -11.868     -4.808    0.055       1 
 125740.00    30.5005319719   114.5189114606     31.296    -12.089     -4.947    0.059       1 
 125741.00    30.5004865367   114.5187839386     31.358    -12.408     -5.102    0.051       1 
 125742.00    30.5004403434   114.5186530450     31.462    -12.707     -5.149    0.101       1 
 125743.00    30.5003937743   114.5185196953     31.551    -12.866     -5.161    0.065       1 
 125744.00    30.5003472522   114.5183852731     31.626    -12.924     -5.146    0.079       1 
 125745.00    30.5003006434   114.5182505407     31.719    -12.911     -5.216    0.075       1 
 125746.00    30.5002534332   114.5181172489     31.797    -12.667     -5.202    0.044       1 
 125747.00    30.5002070643   114.5179865065     31.862    -12.415     -5.086    0.081       1 
 125748.00    30.5001618694   114.5178579098     31.928    -12.257     -4.960    0.092       1 
 125749.00    30.5001175725   114.5177311405     32.020    -12.092     -4.883    0.116       1 
 125750.00    30.5000736691   114.5176063130     32.122    -11.889     -4.858    0.125       1 
 125751.00    30.5000299862   114.5174833729     32.237    -11.706     -4.835    0.106       1 
 125752.00    30.4999865587   114.5173617015     32.311    -11.639     -4.810    0.099       1 
 125753.00    30.4999438264   114.5172406928     32.395    -11.581     -4.688    0.091       1 
 125754.00    30.4999021565   114.5171202256     32.470    -11.520     -4.587    0.059       1 
 125755.00    30.4998605866   114.5170011385     32.534    -11.378     -4.604    0.062       1 
 125756.00    30.4998192173   114.5168831764     32.594    -11.297     -4.582    0.037       1 
 125757.00    30.4997780593   114.5167658758     32.662    -11.275     -4.559    0.111       1 
 125758.00    30.4997364024   114.5166475434     32.778    -11.468     -4.697    0.068       1 
 125759.00    30.4996934315   114.5165262914     32.837    -11.807     -4.818    0.076       1 
 125760.00    30.4996497456   114.5164013379     32.910    -12.207     -4.900    0.080       1 
 125761.00    30.4996049588   114.5162720884     32.999    -12.601     -5.028    0.067       1 
 125762.00    30.4995595409   114.5161401111     33.080    -12.657     -5.011    0.079       1 
 125763.00    30.4995148425   114.5160090322     33.160    -12.486     -4.899    0.087       1 
 125764.00    30.4994708950   114.5158797121     33.246    -12.351     -4.880    0.088       1 
 125765.00    30.4994264958   114.5157520541     33.344    -12.196     -4.941    0.094       1 
 125766.00    30.4993817697   114.5156256545     33.423    -12.093     -4.959    0.086       1 
 125767.00    30.4993366576   114.5154989196     33.496    -12.286     -5.066    0.073       1 
 125768.00    30.4992901946   114.5153691116     33.572    -12.646     -5.241    0.099       1 
 125769.00    30.4992420815   114.5152352010     33.655    -13.039     -5.425    0.102       1 
 125770.00    30.4991924887   114.5150972748     33.743    -13.427     -5.548    0.100       1 
 125771.00    30.4991424012   114.5149553426     33.829    -13.764     -5.561    0.055       1 
 125772.00    30.4990925442   114.5148110286     33.889    -13.906     -5.517    0.105       1 
 125773.00    30.4990431707   114.5146655821     33.974    -13.958     -5.446    0.084       1 
 125774.00    30.4989949541   114.5145212150     34.071    -13.693     -5.250    0.127       1 
 125775.00    30.4989482950   114.5143807834     34.177    -13.279     -5.107    0.097       1 
 125776.00    30.4989028359   114.5142446567     34.259    -12.879     -4.953    0.053       1 
 125777.00    30.4988589211   114.5141125529     34.323    -12.505     -4.785    0.073       1 
 125778.00    30.4988166945   114.5139844681     34.411    -12.108     -4.591    0.082       1 
 125779.00    30.4987757661   114.5138606620     34.488    -11.682     -4.486    0.110       1 
 125780.00    30.4987351209   114.5137416621     34.581    -11.248     -4.524    0.086       1 
 125781.00    30.4986941343   114.5136259408     34.656    -11.045     -4.516    0.059       1 
 125782.00    30.4986536177   114.5135113503     34.701    -10.895     -4.454    0.054       1 
 125783.00    30.4986141755   114.5133996500     34.757    -10.531     -4.277    0.052       1 
 125784.00    30.4985765484   114.5132921253     34.806    -10.117     -4.072    0.001       1 
 125785.00    30.4985406249   114.5131886960     34.846     -9.781     -3.915    0.080       1 
 125786.00    30.4985054091   114.5130869168     34.946     -9.840     -3.956    0.169       1 
 125787.00    30.4984694422   114.5129829971     35.001    -10.078     -3.988    0.009       1 
 125788.00    30.4984337508   114.5128792014     34.942     -9.846     -3.935   -0.047       1 
 125789.00    30.4983982682   114.5127788878     34.883     -9.453     -3.920   -0.041       1 
 125790.00    30.4983628949   114.5126821660     34.842     -9.275     -3.955   -0.068       1 
 125791.00    30.4983260869   114.5125843023     34.782     -9.561     -4.187   -0.047       1 
 125792.00    30.4982872985   114.5124828997     34.732     -9.921     -4.400   -0.067       1 
 125793.00    30.4982467865   114.5123779573     34.671    -10.177     -4.557   -0.059       1 
 125794.00    30.4982059870   114.5122730475     34.624     -9.933     -4.468   -0.066       1 
 125795.00    30.4981667402   114.5121712205     34.583     -9.601     -4.242   -0.031       1 
 125796.00    30.4981297343   114.5120724716     34.532     -9.333     -3.946   -0.034       1 
 125797.00    30.4980952131   114.5119755829     34.468     -9.309     -3.784   -0.077       1 
 125798.00    30.4980616110   114.5118788768     34.405     -9.185     -3.664   -0.043       1 
 125799.00    30.4980293506   114.5117854305     34.328     -8.679     -3.471   -0.064       1 
 125800.00    30.4979992573   114.5116984798     34.267     -8.004     -3.206   -0.040       1 
 125801.00    30.4979711887   114.5116173494     34.215     -7.587     -3.020   -0.074       1 
 125802.00    30.4979446585   114.5115403734     34.164     -7.210     -2.866   -0.046       1 
 125803.00    30.4979195684   114.5114673739     34.131     -6.867     -2.733   -0.041       1 
 125804.00    30.4978948423   114.5113951867     34.093     -7.013     -2.759   -0.065       1 
 125805.00    30.4978702015   114.5113224929     34.049     -6.837     -2.666   -0.027       1 
 125806.00    30.4978468903   114.5112532346     34.013     -6.520     -2.529   -0.048       1 
 125807.00    30.4978235823   114.5111851303     33.970     -6.596     -2.648   -0.042       1 
 125808.00    30.4977989631   114.5111157006     33.924     -6.773     -2.808   -0.036       1 
 125809.00    30.4977726596   114.5110434392     33.882     -7.169     -3.019   -0.033       1 
 125810.00    30.4977448198   114.5109668746     33.842     -7.469     -3.126   -0.043       1 
 125811.00    30.4977164308   114.5108883625     33.804     -7.617     -3.177   -0.037       1 
 125812.00    30.4976874455   114.5108080592     33.733     -7.839     -3.273   -0.069       1 
 125813.00    30.4976572254   114.5107245647     33.674     -8.139     -3.399   -0.058       1 
 125814.00    30.4976265930   114.5106390222     33.623     -8.351     -3.425   -0.044       1 
 125815.00    30.4975950456   114.5105497192     33.567     -8.843     -3.614   -0.037       1 
 125816.00    30.4975613741   114.5104550159     33.538     -9.377     -3.856   -0.032       1 
 125817.00    30.4975256888   114.5103550743     33.486     -9.780     -4.043   -0.065       1 
 125818.00    30.4974886683   114.5102524512     33.431     -9.871     -4.135   -0.056       1 
 125819.00    30.4974516554   114.5101512409     33.380     -9.574     -4.056   -0.039       1 
 125820.00    30.4974154384   114.5100536193     33.321     -9.199     -3.961   -0.054       1 
 125821.00    30.4973801330   114.5099596056     33.263     -8.871     -3.856   -0.050       1 
 125822.00    30.4973458334   114.5098691860     33.214     -8.505     -3.749   -0.025       1 
 125823.00    30.4973121290   114.5097811560     33.159     -8.385     -3.720   -0.059       1 
 125824.00    30.4972789480   114.5096952989     33.097     -8.097     -3.613   -0.072       1 
 125825.00    30.4972467334   114.5096129523     33.054     -7.733     -3.513   -0.071       1 
 125826.00    30.4972156206   114.5095344610     33.021     -7.356     -3.402   -0.020       1 
 125827.00    30.4971847538   114.5094587863     32.998     -7.235     -3.419   -0.044       1 
 125828.00    30.4971539605   114.5093833927     32.957     -7.247     -3.410   -0.024       1 
 125829.00    30.4971232236   114.5093063748     32.919     -7.602     -3.437   -0.072       1 
 125830.00    30.4970918508   114.5092251480     32.873     -7.904     -3.524   -0.045       1 
 125831.00    30.4970597956   114.5091431601     32.832     -7.778     -3.512   -0.041       1 
 125832.00    30.4970288719   114.5090640338     32.778     -7.416     -3.333   -0.069       1 
 125833.00    30.4970003492   114.5089903152     32.729     -6.628     -2.948   -0.010       1 
 125834.00    30.4969763158   114.5089271877     32.686     -5.424     -2.381   -0.025       1 
 125835.00    30.4969574007   114.5088764529     32.662     -4.304     -1.847   -0.019       1 
 125836.00    30.4969422352   114.5088355763     32.643     -3.557     -1.521   -0.017       1 
 125837.00    30.4969300469   114.5088027202     32.624     -2.801     -1.195   -0.016       1 
 125838.00    30.4969202719   114.5087762094     32.611     -2.386     -1.011   -0.026       1 
 125839.00    30.4969114274   114.5087519051     32.597     -2.385     -1.004   -0.008       1 
 125840.00    30.4969023074   114.5087264469     32.583     -2.488     -1.025   -0.020       1 
 125841.00    30.4968928414   114.5086996003     32.569     -2.728     -1.109   -0.006       1 
 125842.00    30.4968816944   114.5086684186     32.554     -3.271     -1.370   -0.022       1 
 125843.00    30.4968681084   114.5086318705     32.532     -3.758     -1.622   -0.036       1 
 125844.00    30.4968526353   114.5085906664     32.506     -4.158     -1.780   -0.035       1 
 125845.00    30.4968359374   114.5085458385     32.481     -4.438     -1.902   -0.043       1 
 125846.00    30.4968186014   114.5084990269     32.448     -4.561     -1.946   -0.017       1 
 125847.00    30.4968004204   114.5084496771     32.413     -4.975     -2.111   -0.037       1 
 125848.00    30.4967799795   114.5083944913     32.394     -5.624     -2.417   -0.013       1 
 125849.00    30.4967571491   114.5083340489     32.368     -5.938     -2.580   -0.026       1 
 125850.00    30.4967337241   114.5082711731     32.340     -6.052     -2.563   -0.041       1 
 125851.00    30.4967117073   114.5082097724     32.304     -5.779     -2.379   -0.029       1 
 125852.00    30.4966900865   114.5081480660     32.267     -6.080     -2.473   -0.046       1 
 125853.00    30.4966671078   114.5080836580     32.221     -6.305     -2.606   -0.045       1 
 125854.00    30.4966428967   114.5080157985     32.168     -6.789     -2.782   -0.058       1 
 125855.00    30.4966169373   114.5079428073     32.133     -7.221     -2.964   -0.015       1 
 125856.00    30.4965890943   114.5078645032     32.072     -7.819     -3.211   -0.091       1 
 125857.00    30.4965588432   114.5077795911     32.012     -8.534     -3.487   -0.077       1 
 125858.00    30.4965261768   114.5076870867     31.942     -9.224     -3.741   -0.079       1 
 125859.00    30.4964918781   114.5075886286     31.865     -9.603     -3.847   -0.054       1 
 125860.00    30.4964572561   114.5074875466     31.801     -9.749     -3.821   -0.064       1 
 125861.00    30.4964232681   114.5073855664     31.736     -9.805     -3.721   -0.102       1 
 125862.00    30.4963900635   114.5072831593     31.632     -9.863     -3.652   -0.096       1 
 125863.00    30.4963574871   114.5071803048     31.548     -9.919     -3.603   -0.083       1 
 125864.00    30.4963242497   114.5070757405     31.481    -10.225     -3.764   -0.089       1 
 125865.00    30.4962894210   114.5069671753     31.409    -10.605     -3.920   -0.114       1 
 125866.00    30.4962541753   114.5068555586     31.292    -10.769     -3.877   -0.072       1 
 125867.00    30.4962199090   114.5067433818     31.207    -10.747     -3.750   -0.084       1 
 125868.00    30.4961865414   114.5066306993     31.100    -10.896     -3.679   -0.112       1 
 125869.00    30.4961537495   114.5065165316     31.002    -11.000     -3.615   -0.085       1 
 125870.00    30.4961219123   114.5064016105     30.919    -11.006     -3.463   -0.076       1 
 125871.00    30.4960917127   114.5062879886     30.825    -10.794     -3.260   -0.111       1 
 125872.00    30.4960627282   114.5061756445     30.712    -10.793     -3.194   -0.121       1 
 125873.00    30.4960338694   114.5060633520     30.625    -10.795     -3.205   -0.062       1 
 125874.00    30.4960048757   114.5059507048     30.534    -10.848     -3.228   -0.087       1 
 125875.00    30.4959758346   114.5058376180     30.452    -10.871     -3.187   -0.122       1 
 125876.00    30.4959472809   114.5057242266     30.350    -10.968     -3.137   -0.116       1 
 125877.00    30.4959190515   114.5056077940     30.251    -11.414     -3.136   -0.130       1 
 125878.00    30.4958905613   114.5054859613     30.143    -11.911     -3.167   -0.102       1 
 125879.00    30.4958623061   114.5053609957     30.030    -12.046     -3.107   -0.123       1 
 125880.00    30.4958349687   114.5052360934     29.928    -11.869     -2.977   -0.067       1 
 125881.00    30.4958089020   114.5051138881     29.837    -11.593     -2.825   -0.099       1 
 125882.00    30.4957841217   114.5049945615     29.725    -11.315     -2.679   -0.099       1 
 125883.00    30.4957605972   114.5048780984     29.635    -11.032     -2.568   -0.090       1 
 125884.00    30.4957378860   114.5047651014     29.544    -10.645     -2.456   -0.076       1 
 125885.00    30.4957162504   114.5046569983     29.449    -10.130     -2.336   -0.109       1 
 125886.00    30.4956959014   114.5045538925     29.366     -9.650     -2.180   -0.090       1 
 125887.00    30.4956769574   114.5044560100     29.288     -9.162     -2.035   -0.071       1 
 125888.00    30.4956594564   114.5043621983     29.204     -8.804     -1.862   -0.115       1 
 125889.00    30.4956435211   114.5042723383     29.104     -8.367     -1.676   -0.096       1 
 125890.00    30.4956295028   114.5041890535     29.042     -7.665     -1.458   -0.054       1 
 125891.00    30.4956172597   114.5041127703     28.998     -6.965     -1.257   -0.079       1 
 125892.00    30.4956066694   114.5040445895     28.942     -6.164     -1.079   -0.074       1 
 125893.00    30.4955976767   114.5039837581     28.902     -5.508     -0.904   -0.065       1 
 125894.00    30.4955902741   114.5039297260     28.838     -4.828     -0.735   -0.052       1 
 125895.00    30.4955840733   114.5038826502     28.793     -4.175     -0.628   -0.038       1 
 125896.00    30.4955789728   114.5038432755     28.758     -3.392     -0.522   -0.035       1 
 125897.00    30.4955748607   114.5038113460     28.728     -2.819     -0.419   -0.027       1 
 125898.00    30.4955710290   114.5037812407     28.707     -2.973     -0.432   -0.025       1 
 125899.00    30.4955670725   114.5037502915     28.684     -2.884     -0.408   -0.034       1 
 125900.00    30.4955632691   114.5037203080     28.662     -2.903     -0.415   -0.023       1 
 125901.00    30.4955594592   114.5036902063     28.638     -2.975     -0.429   -0.041       1 
 125902.00    30.4955552131   114.5036563570     28.606     -3.584     -0.514   -0.025       1 
 125903.00    30.4955501544   114.5036158126     28.566     -4.198     -0.605   -0.050       1 
 125904.00    30.4955443951   114.5035693234     28.520     -4.696     -0.666   -0.047       1 
 125905.00    30.4955386371   114.5035222803     28.471     -4.206     -0.598   -0.036       1 
 125906.00    30.4955334579   114.5034788517     28.427     -4.205     -0.577   -0.054       1 
 125907.00    30.4955281273   114.5034335969     28.384     -4.499     -0.619   -0.039       1 
