GPSTime         Latitude        Longitude      H-Ell      Vel-N      Vel-E    Vel-U       Q  
(sec)            (Deg)            (Deg)        (m)      (m/s)      (m/s)    (m/s)          
308375.000    22.6795222887   113.7706223830     10.540      7.632    -11.452    0.427       1 
308376.000    22.6795835421   113.7705104351     10.948      6.298    -11.920    0.474       1 
308377.000    22.6796321581   113.7703929723     11.367      4.881    -12.660    0.427       1 
308378.000    22.6796680957   113.7702695418     11.730      3.510    -13.217    0.358       1 
308379.000    22.6796919585   113.7701411522     12.009      2.157    -13.650    0.233       1 
308380.000    22.6797042726   113.7700088142     12.193      0.890    -14.070    0.144       1 
308381.000    22.6797026826   113.7698733561     12.308     -0.886    -14.531    0.046       1 
308382.000    22.6796822249   113.7697365284     12.291     -3.113    -14.541   -0.058       1 
308383.000    22.6796437676   113.7695999536     12.172     -4.994    -14.414   -0.154       1 
308384.000    22.6795893811   113.7694643540     11.965     -6.765    -14.266   -0.179       1 
308385.000    22.6795190320   113.7693331084     11.765     -8.503    -13.513   -0.167       1 
308386.000    22.6794333731   113.7692122852     11.568    -10.226    -12.398   -0.093       0 
308387.000    22.6793330446   113.7691057156     11.362    -11.808    -10.686   -0.238       0 
308388.000    22.6792199951   113.7690162213     11.116    -13.107     -8.968   -0.271       0 
308389.000    22.6790974777   113.7689428103     10.898    -13.972     -7.310   -0.197       0 
308390.000    22.6789686454   113.7688856663     10.737    -14.551     -5.571   -0.045       0 
308391.000    22.6788353944   113.7688438114     10.734    -15.066     -4.005    0.093       0 
308392.000    22.6786973766   113.7688147873     10.801    -15.621     -2.697    0.122       0 
308393.000    22.6785546911   113.7687978447     11.013    -16.104     -1.474    0.234       0 
308394.000    22.6784081068   113.7687897222     11.305    -16.411     -0.701    0.370       0 
308395.000    22.6782588375   113.7687835742     11.753    -16.674     -0.623    0.516       0 
308396.000    22.6781071867   113.7687783622     12.180    -16.922     -0.587    0.478       1 
308397.000    22.6779532990   113.7687720791     12.641    -17.158     -0.665    0.454       1 
308398.000    22.6777973732   113.7687647896     13.094    -17.339     -0.769    0.438       1 
308399.000    22.6776398854   113.7687560656     13.551    -17.503     -0.872    0.441       1 
308400.000    22.6774808837   113.7687464129     13.982    -17.700     -1.014    0.390       1 
308401.000    22.6773202600   113.7687351340     14.417    -17.840     -1.154    0.428       1 
308402.000    22.6771583093   113.7687223213     14.872    -18.007     -1.369    0.492       1 
308403.000    22.6769958068   113.7687084864     15.300    -17.826     -1.423    0.473       1 
308404.000    22.6768366611   113.7686933526     15.750    -17.461     -1.611    0.468       1 
308405.000    22.6766795146   113.7686769815     16.166    -17.360     -1.688    0.408       1 
308406.000    22.6765230364   113.7686620571     16.613    -17.327     -1.531    0.435       1 
308407.000    22.6763667986   113.7686486129     17.047    -17.277     -1.323    0.499       1 
308408.000    22.6762125802   113.7686367889     17.471    -16.917     -1.182    0.478       1 
308409.000    22.6760606007   113.7686262825     17.874    -16.708     -0.990    0.384       1 
308410.000    22.6759114051   113.7686175060     18.217    -16.436     -0.873    0.324       1 
308411.000    22.6757633325   113.7686090355     18.502    -16.285     -0.878    0.226       1 
308412.000    22.6756169973   113.7686008242     18.678    -16.186     -0.858    0.113       1 
308413.000    22.6754706262   113.7685926532     18.790    -16.251     -0.846    0.105       1 
308414.000    22.6753234374   113.7685851700     18.804    -16.306     -0.728   -0.059       1 
308415.000    22.6751772254   113.7685804353     18.775    -16.140     -0.428   -0.107       1 
308416.000    22.6750314800   113.7685749148     18.712    -16.139     -0.659   -0.084       1 
308417.000    22.6748854503   113.7685661117     18.646    -16.175     -0.941   -0.059       1 
308418.000    22.6747383616   113.7685537966     18.558    -16.349     -1.346   -0.133       1 
308419.000    22.6745904043   113.7685389710     18.462    -16.310     -1.579   -0.051       1 
308420.000    22.6744437445   113.7685232227     18.370    -16.169     -1.618   -0.126       1 
308421.000    22.6742986463   113.7685076274     18.268    -16.057     -1.611   -0.149       1 
308422.000    22.6741526752   113.7684910779     18.160    -16.245     -1.711   -0.074       1 
308423.000    22.6740047878   113.7684697468     18.064    -16.453     -2.351   -0.110       1 
308424.000    22.6738549466   113.7684432577     17.927    -16.695     -2.815   -0.045       1 
308425.000    22.6737028408   113.7684142454     17.765    -16.929     -3.013   -0.185       1 
308426.000    22.6735503478   113.7683839249     17.642    -16.811     -3.129   -0.134       1 
308427.000    22.6733981041   113.7683533886     17.478    -16.932     -3.157   -0.125       1 
308428.000    22.6732447194   113.7683239485     17.387    -17.060     -3.042   -0.124       1 
308429.000    22.6730904336   113.7682942320     17.260    -17.110     -3.079   -0.089       1 
308430.000    22.6729363339   113.7682631456     17.186    -16.977     -3.238   -0.132       1 
308431.000    22.6727833440   113.7682314752     17.119    -16.947     -3.269   -0.042       1 
308432.000    22.6726304770   113.7682006275     17.050    -16.896     -3.208   -0.099       1 
308433.000    22.6724786769   113.7681698742     16.987    -16.733     -3.135   -0.041       1 
308434.000    22.6723279948   113.7681402084     16.913    -16.645     -3.019   -0.035       1 
308435.000    22.6721779815   113.7681120428     16.849    -16.605     -2.872   -0.119       1 
308436.000    22.6720273253   113.7680847090     16.741    -16.795     -2.796   -0.115       1 
308437.000    22.6718745950   113.7680574767     16.629    -17.035     -2.786   -0.139       1 
308438.000    22.6717197240   113.7680292280     16.496    -17.255     -2.984   -0.109       1 
308439.000    22.6715643274   113.7680026405     16.371    -17.220     -2.647   -0.186       1 
308440.000    22.6714083080   113.7679802277     16.165    -17.392     -2.209   -0.189       1 
308441.000    22.6712506581   113.7679604006     15.992    -17.532     -2.031   -0.167       1 
308442.000    22.6710925312   113.7679400524     15.830    -17.405     -2.175   -0.112       1 
308443.000    22.6709360971   113.7679161165     15.695    -17.248     -2.555   -0.179       1 
308444.000    22.6707803905   113.7678904800     15.538    -17.262     -2.644   -0.094       1 
308445.000    22.6706245559   113.7678660567     15.398    -17.276     -2.469   -0.192       1 
308446.000    22.6704687047   113.7678435320     15.243    -17.234     -2.305   -0.075       1 
308447.000    22.6703138840   113.7678236649     15.107    -17.068     -2.007   -0.143       1 
308448.000    22.6701611049   113.7678076979     14.951    -16.809     -1.562   -0.124       1 
308449.000    22.6700107304   113.7677957203     14.821    -16.536     -1.126   -0.175       1 
308450.000    22.6698619670   113.7677854166     14.701    -16.497     -1.093   -0.158       1 
308451.000    22.6697122531   113.7677741381     14.571    -16.669     -1.191   -0.095       1 
308452.000    22.6695610231   113.7677625822     14.455    -16.836     -1.202   -0.112       1 
308453.000    22.6694084305   113.7677514110     14.345    -16.977     -1.152   -0.070       1 
308454.000    22.6692551536   113.7677406197     14.273    -16.917     -1.108   -0.072       1 
308455.000    22.6691026050   113.7677302498     14.194    -16.905     -1.023   -0.038       1 
308456.000    22.6689496986   113.7677206588     14.117    -16.964     -0.986   -0.061       1 
308457.000    22.6687962982   113.7677118439     14.028    -17.007     -0.912   -0.218       1 
308458.000    22.6686425268   113.7677045670     13.965    -17.078     -0.698   -0.094       1 
308459.000    22.6684883570   113.7677002914     13.902    -17.128     -0.373    0.014       1 
308460.000    22.6683333148   113.7676980837     13.835    -17.263     -0.183   -0.042       1 
308461.000    22.6681765292   113.7676973927     13.778    -17.493     -0.053   -0.012       1 
308462.000    22.6680174853   113.7676980187     13.734    -17.744      0.116   -0.061       1 
308463.000    22.6678564106   113.7677000222     13.702    -17.933      0.255   -0.103       1 
308464.000    22.6676951370   113.7677039283     13.663    -17.812      0.446    0.013       1 
308465.000    22.6675346759   113.7677110860     13.638    -17.777      0.846   -0.070       1 
308466.000    22.6673742132   113.7677208679     13.606    -17.788      1.065    0.047       1 
308467.000    22.6672134809   113.7677319381     13.595    -17.816      1.161   -0.013       1 
308468.000    22.6670524929   113.7677433323     13.585    -17.855      1.148   -0.003       1 
308469.000    22.6668909142   113.7677550237     13.579    -17.948      1.180   -0.094       1 
308470.000    22.6667286113   113.7677683826     13.582    -18.040      1.433    0.022       1 
308471.000    22.6665655730   113.7677849024     13.556    -18.106      1.795    0.042       1 
308472.000    22.6664018202   113.7678031309     13.579    -18.167      1.894    0.032       1 
308473.000    22.6662380269   113.7678217008     13.579    -18.050      1.878   -0.055       1 
308474.000    22.6660750805   113.7678409631     13.580    -18.111      1.990   -0.000       1 
308475.000    22.6659117838   113.7678633897     13.584    -18.042      2.422   -0.001       1 
308476.000    22.6657505462   113.7678897680     13.585    -17.771      2.814   -0.032       1 
308477.000    22.6655903362   113.7679177211     13.597    -17.752      2.861   -0.046       1 
308478.000    22.6654306219   113.7679478366     13.570    -17.680      3.135   -0.031       1 
308479.000    22.6652705736   113.7679777055     13.559    -17.746      3.050   -0.028       1 
308480.000    22.6651102303   113.7680078518     13.568    -17.782      3.126   -0.025       1 
308481.000    22.6649500388   113.7680398414     13.550    -17.670      3.311   -0.034       1 
308482.000    22.6647912515   113.7680738630     13.567    -17.609      3.548    0.038       1 
308483.000    22.6646323481   113.7681108118     13.576    -17.618      3.916    0.002       1 
308484.000    22.6644733410   113.7681494638     13.565    -17.622      3.995   -0.020       1 
308485.000    22.6643147302   113.7681899720     13.557    -17.523      4.195   -0.010       1 
308486.000    22.6641564212   113.7682292132     13.582    -17.511      4.008   -0.023       1 
308487.000    22.6639993604   113.7682711360     13.590    -17.353      4.411   -0.031       1 
308488.000    22.6638436458   113.7683172419     13.577    -17.243      4.803   -0.040       1 
308489.000    22.6636877869   113.7683648670     13.565    -17.295      4.981    0.015       1 
308490.000    22.6635308720   113.7684128342     13.584    -17.449      4.990   -0.085       1 
308491.000    22.6633723511   113.7684620865     13.576    -17.677      5.091    0.006       1 
308492.000    22.6632116847   113.7685122845     13.562    -17.937      5.196    0.001       1 
308493.000    22.6630497392   113.7685666869     13.566    -18.040      5.755   -0.054       1 
308494.000    22.6628866364   113.7686268567     13.541    -18.201      6.325   -0.052       1 
308495.000    22.6627218325   113.7686907059     13.518    -18.242      6.571   -0.057       1 
308496.000    22.6625577414   113.7687555029     13.499    -18.186      6.643    0.001       1 
308497.000    22.6623936295   113.7688223386     13.470    -18.215      6.945   -0.045       1 
308498.000    22.6622287276   113.7688906769     13.416    -18.346      6.988    0.036       1 
308499.000    22.6620626598   113.7689607837     13.408    -18.475      7.287   -0.081       1 
308500.000    22.6618953184   113.7690330668     13.339    -18.616      7.474   -0.000       1 
308501.000    22.6617269497   113.7691076815     13.273    -18.715      7.772   -0.047       1 
308502.000    22.6615577591   113.7691858256     13.246    -18.787      8.194   -0.025       1 
308503.000    22.6613877993   113.7692680895     13.165    -18.911      8.558   -0.047       1 
308504.000    22.6612169159   113.7693539866     13.079    -18.996      8.955   -0.092       1 
308505.000    22.6610448719   113.7694426491     13.020    -19.152      9.187   -0.061       1 
308506.000    22.6608715251   113.7695339524     12.926    -19.284      9.501   -0.091       1 
308507.000    22.6606967100   113.7696275698     12.823    -19.451      9.716   -0.112       1 
308508.000    22.6605205302   113.7697238629     12.731    -19.598     10.024   -0.145       1 
308509.000    22.6603436615   113.7698241520     12.607    -19.639     10.472   -0.069       1 
308510.000    22.6601656204   113.7699274241     12.470    -19.839     10.676   -0.079       1 
308511.000    22.6599859077   113.7700329520     12.309    -20.058     10.912   -0.194       1 
308512.000    22.6598034084   113.7701407980     12.152    -20.327     11.149   -0.199       1 
308513.000    22.6596209094   113.7702491986     11.948    -20.086     11.062   -0.163       1 
308514.000    22.6594402093   113.7703570709     11.785    -19.965     11.115   -0.163       1 
308515.000    22.6592608974   113.7704662522     11.633    -19.770     11.259   -0.106       1 
308516.000    22.6590827724   113.7705768574     11.494    -19.711     11.332   -0.178       1 
308517.000    22.6589046091   113.7706871493     11.328    -19.727     11.343   -0.112       1 
308518.000    22.6587271150   113.7707985188     11.225    -19.632     11.492   -0.137       1 
308519.000    22.6585507058   113.7709115881     11.100    -19.504     11.669   -0.060       1 
308520.000    22.6583743362   113.7710245270     10.986    -19.546     11.541   -0.135       1 
308521.000    22.6581975153   113.7711368720     10.858    -19.606     11.559   -0.102       1 
308522.000    22.6580198997   113.7712498220     10.744    -19.762     11.582   -0.118       1 
308523.000    22.6578409865   113.7713637380     10.632    -19.901     11.759   -0.152       1 
308524.000    22.6576605789   113.7714787920     10.513    -20.060     11.874   -0.144       1 
308525.000    22.6574782772   113.7715940690     10.377    -20.291     11.822   -0.103       1 
308526.000    22.6572955475   113.7717079915     10.256    -20.171     11.597   -0.114       1 
308527.000    22.6571142011   113.7718215139     10.136    -20.020     11.660   -0.153       1 
308528.000    22.6569332880   113.7719340498     10.019    -20.037     11.506   -0.135       1 
308529.000    22.6567521716   113.7720462013      9.879    -20.066     11.527   -0.095       1 
308530.000    22.6565711360   113.7721588094      9.749    -20.021     11.625   -0.150       1 
308531.000    22.6563906965   113.7722723926      9.622    -19.968     11.717   -0.162       1 
308532.000    22.6562105445   113.7723866319      9.514    -19.942     11.746   -0.082       1 
308533.000    22.6560300646   113.7725003665      9.411    -19.999     11.658   -0.148       1 
308534.000    22.6558488728   113.7726130073      9.308    -20.081     11.544   -0.142       1 
308535.000    22.6556673789   113.7727252505      9.215    -20.113     11.566   -0.138       1 
308536.000    22.6554863821   113.7728392460      9.137    -20.026     11.819   -0.028       1 
308537.000    22.6553057218   113.7729548615      9.051    -19.994     11.948   -0.087       1 
308538.000    22.6551246518   113.7730709028      8.981    -20.100     11.924   -0.079       1 
308539.000    22.6549427708   113.7731866640      8.915    -20.166     11.909   -0.073       1 
308540.000    22.6547602530   113.7733025477      8.861    -20.252     11.912   -0.057       1 
308541.000    22.6545769084   113.7734181936      8.788    -20.346     11.880   -0.113       1 
308542.000    22.6543928175   113.7735334438      8.725    -20.409     11.831   -0.097       1 
308543.000    22.6542084669   113.7736489932      8.668    -20.425     11.914    0.050       1 
308544.000    22.6540239019   113.7737648837      8.626    -20.459     11.902   -0.079       1 
308545.000    22.6538393191   113.7738812232      8.586    -20.433     11.972   -0.031       1 
308546.000    22.6536546654   113.7739980901      8.539    -20.469     12.094   -0.020       1 
308547.000    22.6534695794   113.7741159398      8.513    -20.539     12.126   -0.076       1 
308548.000    22.6532836822   113.7742342900      8.497    -20.639     12.143    0.043       1 
308549.000    22.6530965800   113.7743524543      8.475    -20.793     12.138    0.001       1 
308550.000    22.6529081499   113.7744703358      8.470    -20.931     12.115   -0.029       1 
308551.000    22.6527186190   113.7745881865      8.449    -21.034     12.166   -0.038       1 
308552.000    22.6525283775   113.7747067229      8.466    -21.097     12.238    0.006       1 
308553.000    22.6523377526   113.7748263285      8.455    -21.131     12.356   -0.059       1 
308554.000    22.6521467903   113.7749469746      8.458    -21.183     12.438   -0.031       1 
308555.000    22.6519553760   113.7750685505      8.456    -21.223     12.541   -0.018       1 
308556.000    22.6517634350   113.7751906604      8.450    -21.317     12.512   -0.025       1 
308557.000    22.6515705769   113.7753124937      8.457    -21.390     12.526    0.006       1 
308558.000    22.6513772411   113.7754346533      8.453    -21.431     12.559   -0.017       1 
308559.000    22.6511836090   113.7755575661      8.452    -21.447     12.706    0.021       1 
308560.000    22.6509895520   113.7756811135      8.458    -21.527     12.695   -0.034       1 
308561.000    22.6507947221   113.7758049776      8.465    -21.618     12.764   -0.044       1 
308562.000    22.6505990886   113.7759291047      8.464    -21.690     12.813    0.030       1 
308563.000    22.6504026485   113.7760537533      8.461    -21.805     12.819    0.004       1 
308564.000    22.6502049325   113.7761781683      8.472    -21.966     12.792   -0.039       1 
308565.000    22.6500060489   113.7763023558      8.456    -22.060     12.814   -0.135       1 
308566.000    22.6498064788   113.7764269817      8.457    -22.149     12.805    0.055       1 
308567.000    22.6496064755   113.7765519514      8.453    -22.145     12.871   -0.043       1 
308568.000    22.6494059763   113.7766762653      8.448    -22.266     12.744    0.089       1 
308569.000    22.6492046205   113.7768001946      8.468    -22.321     12.752    0.012       1 
308570.000    22.6490029682   113.7769252110      8.442    -22.374     12.884    0.039       1 
308571.000    22.6488009698   113.7770517144      8.461    -22.394     13.038    0.080       1 
308572.000    22.6485990404   113.7771800876      8.457    -22.384     13.233    0.133       1 
308573.000    22.6483967612   113.7773095899      8.460    -22.443     13.317   -0.037       1 
308574.000    22.6481941601   113.7774399254      8.446    -22.462     13.427   -0.076       1 
308575.000    22.6479904557   113.7775700799      8.460    -22.639     13.314   -0.054       1 
308576.000    22.6477850233   113.7776995018      8.478    -22.829     13.316   -0.041       1 
308577.000    22.6475778372   113.7778282674      8.489    -23.023     13.219    0.063       1 
308578.000    22.6473701511   113.7779567544      8.479    -22.860     13.127   -0.066       1 
308579.000    22.6471656378   113.7780847265      8.483    -22.465     13.084   -0.034       1 
308580.000    22.6469647514   113.7782122662      8.471    -22.094     13.119    0.011       1 
