
GPSTime         Latitude        Longitude      H-Ell      Vel-N      Vel-E    Vel-U       Q  
(sec)            (Deg)            (Deg)        (m)      (m/s)      (m/s)    (m/s)          
298458.000    23.0976566013   113.4928550058     16.378    -11.811     -5.104   -0.495       1 
298459.000    23.0975494675   113.4928152905     15.874    -11.894     -3.975   -0.550       1 
298460.000    23.0974411314   113.4927891344     15.376    -12.061     -2.534   -0.460       1 
298461.000    23.0973328503   113.4927788005     14.848    -11.946     -0.947   -0.496       1 
298462.000    23.0972260883   113.4927806355     14.321    -11.805      0.245   -0.537       1 
298463.000    23.0971202470   113.4927906580     13.813    -11.797      1.065   -0.492       1 
298464.000    23.0970131270   113.4928095848     13.284    -12.158      2.061   -0.549       1 
298465.000    23.0969023017   113.4928383871     12.741    -12.445      3.102   -0.537       0 
298466.000    23.0967907506   113.4928752212     12.261    -12.387      3.769   -0.386       0 
298467.000    23.0966799404   113.4929183359     11.812    -12.246      4.460   -0.330       0 
298468.000    23.0965707495   113.4929665208     11.449    -12.039      4.988   -0.265       0 
298469.000    23.0964644655   113.4930206586     11.193    -11.663      5.575   -0.214       0 
298470.000    23.0963622158   113.4930806517     11.058    -11.162      6.199   -0.134       0 
298471.000    23.0962641817   113.4931446895     11.019    -10.707      6.535    0.057       0 
298472.000    23.0961689311   113.4932123719     11.088    -10.569      7.020    0.133       0 
298473.000    23.0960746515   113.4932854990     11.268    -10.472      7.584    0.228       0 
298474.000    23.0959817335   113.4933646120     11.539    -10.296      8.252    0.369       0 
298475.000    23.0958904972   113.4934497638     11.873    -10.088      8.855    0.325       0 
298476.000    23.0958018339   113.4935406852     12.210     -9.769      9.401    0.379       0 
298477.000    23.0957163840   113.4936376795     12.569     -9.381     10.040    0.415       0 
298478.000    23.0956352144   113.4937411904     12.926     -8.867     10.737    0.344       1 
298479.000    23.0955589282   113.4938512558     13.272     -8.329     11.367    0.350       1 
298480.000    23.0954868060   113.4939668600     13.622     -7.911     11.956    0.327       1 
298481.000    23.0954189746   113.4940880739     13.890     -7.391     12.515    0.215       1 
298482.000    23.0953565612   113.4942158173     14.095     -6.740     13.232    0.126       1 
298483.000    23.0953002782   113.4943504353     14.215     -6.040     13.989    0.070       1 
298484.000    23.0952492649   113.4944917106     14.239     -5.600     14.688   -0.027       1 
298485.000    23.0952012509   113.4946391813     14.163     -5.217     15.332   -0.102       1 
298486.000    23.0951581055   113.4947941677     13.990     -4.551     16.142   -0.137       1 
298487.000    23.0951221145   113.4949574766     13.732     -3.703     16.950   -0.212       1 
298488.000    23.0950942562   113.4951269091     13.469     -2.768     17.362   -0.250       1 
298489.000    23.0950739159   113.4952974462     13.169     -1.946     17.425   -0.447       1 
298490.000    23.0950617789   113.4954674885     12.862     -1.072     17.220   -0.311       1 
298491.000    23.0950541385   113.4956348096     12.539     -0.782     16.873   -0.281       1 
298492.000    23.0950463526   113.4957980884     12.214     -0.878     16.600   -0.331       1 
298493.000    23.0950385976   113.4959600227     11.801     -0.789     16.624   -0.280       1 
298494.000    23.0950330212   113.4961245673     11.557     -0.455     16.782   -0.390       1 
298495.000    23.0950311542   113.4962930886     11.249     -0.071     17.569   -0.355       1 
298496.000    23.0950323893   113.4964639061     10.924      0.229     17.359   -0.284       1 
298497.000    23.0950338738   113.4966315646     10.618      0.122     16.893   -0.515       1 
298498.000    23.0950346744   113.4967903684     10.410      0.101     15.754   -0.180       1 
298499.000    23.0950349270   113.4969434357     10.279     -0.033     15.581   -0.069       1 
298500.000    23.0950358197   113.4970942028     10.293      0.158     15.286    0.059       1 
298501.000    23.0950392409   113.4972426040     10.475      0.455     15.080    0.304       1 
298502.000    23.0950440863   113.4973895765     10.767      0.556     14.976    0.297       1 
298503.000    23.0950490634   113.4975353708     11.092      0.542     14.883    0.385       1 
298504.000    23.0950542274   113.4976802894     11.386      0.581     14.866    0.219       1 
298505.000    23.0950569657   113.4978257943     11.491      0.148     15.054    0.109       1 
298506.000    23.0950577600   113.4979723816     11.726      0.089     14.919    0.274       1 
298507.000    23.0950589678   113.4981174753     11.977      0.193     14.896    0.234       1 
298508.000    23.0950631843   113.4982639702     12.211      0.703     14.993    0.273       1 
298509.000    23.0950730840   113.4984125687     12.432      1.249     15.227    0.175       1 
298510.000    23.0950825406   113.4985598660     12.639      0.899     15.149    0.211       1 
298511.000    23.0950869804   113.4987079190     12.923      0.332     15.386    0.255       1 
298512.000    23.0950882987   113.4988591021     13.211      0.131     15.646    0.287       1 
298513.000    23.0950910852   113.4990139399     13.478      0.446     15.992    0.263       1 
298514.000    23.0950978947   113.4991726577     13.736      0.874     16.464    0.288       1 
298515.000    23.0951067648   113.4993353813     14.056      1.026     16.799    0.480       1 
298516.000    23.0951167030   113.4995016222     14.425      1.145     17.248    0.370       1 
298517.000    23.0951277275   113.4996718240     14.737      1.313     17.631    0.293       1 
298518.000    23.0951418836   113.4998459326     15.047      1.699     18.008    0.318       1 
298519.000    23.0951582066   113.5000234296     15.356      1.859     18.246    0.304       1 
298520.000    23.0951756749   113.5002000361     15.674      1.976     17.867    0.285       1 
298521.000    23.0951946926   113.5003733263     15.990      2.181     17.677    0.330       1 
298522.000    23.0952154190   113.5005465357     16.307      2.328     17.777    0.285       1 
298523.000    23.0952375166   113.5007204010     16.609      2.578     17.679    0.339       1 
298524.000    23.0952637121   113.5008920689     16.912      3.088     17.464    0.269       1 
298525.000    23.0952963950   113.5010629408     17.139      3.912     17.520    0.167       1 
298526.000    23.0953352867   113.5012345808     17.360      4.478     17.588    0.227       1 
298527.000    23.0953749039   113.5014071948     17.620      4.229     17.864    0.286       1 
298528.000    23.0954103947   113.5015833950     17.886      3.883     18.187    0.292       1 
298529.000    23.0954461608   113.5017626175     18.182      4.026     18.552    0.325       1 
298530.000    23.0954829455   113.5019450382     18.468      4.046     18.614    0.270       1 
298531.000    23.0955180466   113.5021261057     18.775      3.853     18.553    0.326       1 
298532.000    23.0955532115   113.5023090292     19.106      3.946     18.917    0.242       1 
298533.000    23.0955891688   113.5024941540     19.429      4.015     19.085    0.299       1 
298534.000    23.0956252915   113.5026811034     19.781      4.028     19.186    0.405       1 
298535.000    23.0956625073   113.5028691807     20.122      4.179     19.316    0.351       1 
298536.000    23.0957005241   113.5030583985     20.458      4.242     19.516    0.275       1 
298537.000    23.0957393256   113.5032488468     20.826      4.334     19.591    0.343       1 
298538.000    23.0957786105   113.5034404074     21.173      4.354     19.661    0.317       1 
298539.000    23.0958180814   113.5036337990     21.524      4.393     19.949    0.334       1 
298540.000    23.0958576958   113.5038301966     21.894      4.413     20.281    0.376       1 
298541.000    23.0958976454   113.5040297843     22.261      4.475     20.551    0.345       1 
298542.000    23.0959385024   113.5042323225     22.593      4.558     20.871    0.381       1 
298543.000    23.0959804323   113.5044378378     22.931      4.716     21.175    0.353       1 
298544.000    23.0960229044   113.5046464852     23.254      4.682     21.567    0.329       1 
298545.000    23.0960651707   113.5048585042     23.567      4.703     21.858    0.286       1 
298546.000    23.0961077850   113.5050737654     23.856      4.723     22.247    0.279       1 
298547.000    23.0961512372   113.5052922093     24.132      4.876     22.511    0.279       1 
298548.000    23.0961958051   113.5055136168     24.382      4.992     22.791    0.256       1 
298549.000    23.0962416685   113.5057374930     24.643      5.129     23.077    0.219       1 
298550.000    23.0962881659   113.5059638059     24.862      5.178     23.350    0.216       1 
298551.000    23.0963350702   113.5061926731     25.051      5.212     23.607    0.170       1 
298552.000    23.0963822594   113.5064242137     25.222      5.229     23.874    0.136       1 
298553.000    23.0964292002   113.5066585394     25.426      5.171     24.184    0.189       1 
298554.000    23.0964749540   113.5068931961     25.558      4.988     23.940    0.089       1 
298555.000    23.0965202364   113.5071259267     25.722      5.076     23.831    0.158       1 
298556.000    23.0965670944   113.5073596106     25.906      5.243     24.060    0.197       1 
298557.000    23.0966141654   113.5075948514     26.087      5.197     24.211    0.203       1 
298558.000    23.0966609687   113.5078311532     26.257      5.181     24.238    0.252       1 
298559.000    23.0967086927   113.5080682930     26.440      5.327     24.354    0.159       1 
298560.000    23.0967569889   113.5083064718     26.623      5.378     24.478    0.125       1 
298561.000    23.0968051795   113.5085459115     26.806      5.329     24.576    0.244       1 
298562.000    23.0968538715   113.5087864846     26.966      5.495     24.661    0.129       1 
298563.000    23.0969051047   113.5090273843     27.143      5.779     24.688    0.186       1 
298564.000    23.0969585262   113.5092684666     27.321      6.005     24.677    0.207       1 
298565.000    23.0970142183   113.5095095431     27.490      6.218     24.686    0.080       1 
298566.000    23.0970710579   113.5097509105     27.668      6.326     24.774    0.113       1 
298567.000    23.0971287222   113.5099927147     27.845      6.466     24.796    0.163       1 
298568.000    23.0971884868   113.5102344830     28.000      6.740     24.783    0.135       1 
298569.000    23.0972501189   113.5104763725     28.152      6.843     24.839    0.061       1 
298570.000    23.0973123461   113.5107188148     28.287      6.896     24.870    0.150       1 
298571.000    23.0973752600   113.5109618082     28.404      7.038     24.943    0.177       1 
298572.000    23.0974403218   113.5112049279     28.513      7.348     24.889    0.050       1 
298573.000    23.0975083993   113.5114478934     28.614      7.675     24.919    0.031       1 
298574.000    23.0975783835   113.5116911789     28.711      7.794     24.871    0.072       1 
298575.000    23.0976503163   113.5119344753     28.798      8.080     24.980    0.152       1 
298576.000    23.0977238867   113.5121787150     28.850      8.191     25.089    0.043       1 
298577.000    23.0977988096   113.5124242610     28.952      8.438     25.175   -0.038       1 
298578.000    23.0978768897   113.5126703076     29.031      8.805     25.288    0.113       1 
298579.000    23.0979564730   113.5129175273     29.115      8.862     25.423    0.051       1 
298580.000    23.0980361448   113.5131664042     29.203      8.799     25.597    0.063       1 
298581.000    23.0981147707   113.5134173732     29.288      8.627     25.802    0.138       1 
298582.000    23.0981902665   113.5136710724     29.364      8.199     26.189    0.081       1 
298583.000    23.0982635560   113.5139273064     29.424      8.126     26.346    0.015       1 
298584.000    23.0983370277   113.5141854033     29.408      8.172     26.495   -0.017       1 
298585.000    23.0984105411   113.5144455217     29.360      8.113     26.834   -0.059       1 
298586.000    23.0984813384   113.5147091846     29.264      7.695     27.218   -0.098       1 
298587.000    23.0985506333   113.5149762628     29.106      7.771     27.493   -0.214       1 
298588.000    23.0986210386   113.5152459252     28.897      7.764     27.799   -0.180       1 
298589.000    23.0986901979   113.5155189660     28.659      7.636     28.140   -0.268       1 
298590.000    23.0987564813   113.5157957093     28.345      7.240     28.388   -0.345       1 
298591.000    23.0988220245   113.5160720128     27.973      7.310     28.228   -0.415       1 
298592.000    23.0988875574   113.5163482740     27.562      7.166     28.406   -0.398       1 
298593.000    23.0989506462   113.5166266216     27.104      6.885     28.648   -0.446       1 
298594.000    23.0990123254   113.5169066849     26.610      6.802     28.787   -0.521       1 
298595.000    23.0990736528   113.5171884986     26.158      6.864     28.875   -0.442       1 
298596.000    23.0991376624   113.5174715646     25.683      7.244     29.093   -0.424       1 
298597.000    23.0992047099   113.5177558721     25.227      7.574     29.165   -0.441       1 
298598.000    23.0992736283   113.5180416442     24.761      7.676     29.398   -0.512       1 
298599.000    23.0993420568   113.5183294319     24.283      7.505     29.638   -0.439       1 
298600.000    23.0994081565   113.5186198331     23.815      7.224     29.911   -0.506       1 
298601.000    23.0994713838   113.5189132352     23.322      6.888     30.213   -0.508       1 
298602.000    23.0995332453   113.5192090115     22.825      6.874     30.413   -0.496       1 
298603.000    23.0995956222   113.5195065329     22.332      6.927     30.644   -0.544       1 
298604.000    23.0996572598   113.5198062568     21.826      6.765     30.818   -0.542       1 
298605.000    23.0997175120   113.5201082455     21.301      6.646     31.023   -0.525       1 
298606.000    23.0997795949   113.5204114608     20.795      7.047     31.159   -0.509       1 
298607.000    23.0998439554   113.5207156139     20.292      7.124     31.275   -0.576       1 
298608.000    23.0999079781   113.5210210566     19.771      7.172     31.290   -0.524       1 
298609.000    23.0999727068   113.5213257564     19.252      7.142     31.044   -0.494       1 
298610.000    23.1000386842   113.5216275684     18.772      7.299     30.977   -0.795       1 
298611.000    23.1001034667   113.5219288464     18.252      7.211     30.823   -0.533       1 
298612.000    23.1001679349   113.5222304340     17.723      7.045     30.884   -0.625       1 
298613.000    23.1002309265   113.5225323567     17.216      6.940     31.067   -0.765       1 
298614.000    23.1002938687   113.5228343820     16.708      7.037     30.889   -0.494       1 
298615.000    23.1003582381   113.5231349005     16.194      7.144     30.759   -0.668       1 
298616.000    23.1004224947   113.5234342245     15.753      7.143     30.659   -0.484       1 
298617.000    23.1004874895   113.5237342406     15.282      7.288     30.520   -0.396       1 
298618.000    23.1005531014   113.5240349635     14.892      7.155     30.894   -0.370       1 
298619.000    23.1006174629   113.5243367095     14.506      7.134     30.975   -0.278       1 
298620.000    23.1006827636   113.5246390756     14.147      7.347     31.127   -0.472       1 
298621.000    23.1007479699   113.5249420002     13.815      7.111     30.927   -0.280       1 
298622.000    23.1008114157   113.5252447616     13.516      6.980     31.167   -0.295       1 
298623.000    23.1008744017   113.5255480929     13.277      6.957     31.079   -0.304       1 
298624.000    23.1009380222   113.5258511716     13.008      7.060     30.932   -0.158       1 
298625.000    23.1010013699   113.5261510757     12.815      6.976     30.503   -0.142       1 
298626.000    23.1010639954   113.5264486804     12.669      6.923     30.437   -0.080       1 
298627.000    23.1011258295   113.5267453880     12.503      6.781     30.342   -0.142       1 
298628.000    23.1011862277   113.5270414454     12.375      6.660     30.191   -0.053       1 
298629.000    23.1012475866   113.5273360465     12.290      6.873     30.027    0.006       1 
298630.000    23.1013090347   113.5276278679     12.235      6.705     29.727   -0.066       1 
298631.000    23.1013683751   113.5279161692     12.206      6.494     29.390    0.003       1 
298632.000    23.1014277850   113.5282004698     12.213      6.676     28.880    0.103       1 
298633.000    23.1014884604   113.5284809057     12.248      6.722     28.538    0.045       1 
298634.000    23.1015484641   113.5287578196     12.298      6.541     28.143    0.099       1 
298635.000    23.1016067352   113.5290309558     12.380      6.397     27.762    0.125       1 
298636.000    23.1016648257   113.5292997400     12.491      6.443     27.304    0.114       1 
298637.000    23.1017220621   113.5295646653     12.628      6.244     27.042    0.140       1 
298638.000    23.1017776831   113.5298266651     12.728      6.092     26.693    0.136       1 
298639.000    23.1018324136   113.5300853281     12.901      6.049     26.334    0.213       2 
298640.000    23.1018868642   113.5303401381     13.095      5.974     25.988    0.184       1 
298641.000    23.1019393874   113.5305916127     13.300      5.701     25.604    0.226       1 
298642.000    23.1019898498   113.5308400980     13.522      5.526     25.350    0.209       1 
298643.000    23.1020398523   113.5310853716     13.767      5.552     24.928    0.249       1 
298644.000    23.1020904715   113.5313278131     14.017      5.631     24.725    0.233       1 
298645.000    23.1021413808   113.5315669827     14.314      5.648     24.293    0.349       1 
298646.000    23.1021924920   113.5318018579     14.594      5.626     23.862    0.269       1 
298647.000    23.1022421157   113.5320323064     14.876      5.380     23.434    0.319       1 
298648.000    23.1022890022   113.5322588429     15.159      5.063     23.068    0.261       1 
298649.000    23.1023341256   113.5324827993     15.444      5.021     22.818    0.320       1 
298650.000    23.1023800038   113.5327039502     15.701      5.014     22.550    0.228       1 
298651.000    23.1024231218   113.5329229196     15.974      4.636     22.477    0.237       1 
298652.000    23.1024633301   113.5331422359     16.229      4.345     22.560    0.242       1 
298653.000    23.1025007912   113.5333626984     16.487      4.045     22.734    0.215       1 
298654.000    23.1025357644   113.5335843182     16.760      3.775     22.782    0.255       1 
298655.000    23.1025678305   113.5338072815     16.992      3.333     22.993    0.251       1 
298656.000    23.1025939030   113.5340318538     17.290      2.641     23.139    0.242       1 
298657.000    23.1026149564   113.5342578458     17.538      2.155     23.269    0.271       1 
298658.000    23.1026317001   113.5344852703     17.802      1.650     23.397    0.253       1 
298659.000    23.1026445572   113.5347139235     18.077      1.301     23.560    0.216       1 
298660.000    23.1026536710   113.5349438366     18.347      0.806     23.679    0.248       1 
298661.000    23.1026575980   113.5351749529     18.596      0.209     23.777    0.231       1 
298662.000    23.1026565149   113.5354072544     18.804     -0.317     23.855    0.218       1 
298663.000    23.1026510602   113.5356407368     18.976     -0.785     24.087    0.143       1 
