
GPSTime         Latitude        Longitude      H-Ell      Vel-N      Vel-E    Vel-U       Q  
(sec)            (Deg)            (Deg)        (m)      (m/s)      (m/s)    (m/s)          
298458.000    23.0976571599   113.4928599301     16.449    -11.851     -5.088   -0.521       1 
298459.000    23.0975504299   113.4928201533     15.937    -11.938     -3.947   -0.522       1 
298460.000    23.0974426442   113.4927938325     15.438    -12.120     -2.505   -0.464       1 
298461.000    23.0973349115   113.4927832438     14.913    -12.010     -0.921   -0.531       1 
298462.000    23.0972284897   113.4927848730     14.387    -11.839      0.260   -0.547       1 
298463.000    23.0971229207   113.4927947033     13.877    -11.830      1.083   -0.485       1 
298464.000    23.0970160836   113.4928133890     13.351    -12.195      2.077   -0.563       1 
298465.000    23.0969055011   113.4928419511     12.809    -12.469      3.117   -0.527       0 
298466.000    23.0967941310   113.4928785807     12.331    -12.434      3.769   -0.506       0 
298467.000    23.0966834604   113.4929215274     11.880    -12.270      4.464   -0.372       0 
298468.000    23.0965744042   113.4929695304     11.517    -12.062      5.001   -0.262       0 
298469.000    23.0964682673   113.4930234477     11.261    -11.692      5.590   -0.212       0 
298470.000    23.0963661627   113.4930832013     11.123    -11.184      6.208   -0.143       0 
298471.000    23.0962682262   113.4931470631     11.080    -10.726      6.543    0.047       0 
298472.000    23.0961730593   113.4932145712     11.149    -10.589      7.028    0.124       0 
298473.000    23.0960788669   113.4932875047     11.326    -10.494      7.598    0.243       0 
298474.000    23.0959860330   113.4933664060     11.594    -10.314      8.258    0.349       0 
298475.000    23.0958948681   113.4934513442     11.928    -10.102      8.874    0.384       0 
298476.000    23.0958062694   113.4935420391     12.265     -9.795      9.410    0.356       0 
298477.000    23.0957208811   113.4936387745     12.622     -9.407     10.056    0.428       0 
298478.000    23.0956397633   113.4937419895     12.981     -8.891     10.751    0.356       1 
298479.000    23.0955635120   113.4938517730     13.327     -8.354     11.380    0.351       1 
298480.000    23.0954914061   113.4939671458     13.678     -7.928     11.971    0.360       1 
298481.000    23.0954235794   113.4940880984     13.948     -7.420     12.534    0.236       1 
298482.000    23.0953611587   113.4942155426     14.154     -6.765     13.244    0.127       1 
298483.000    23.0953048503   113.4943498572     14.275     -6.062     14.005    0.092       1 
298484.000    23.0952538125   113.4944909397     14.299     -5.612     14.695   -0.023       1 
298485.000    23.0952057638   113.4946382204     14.227     -5.237     15.346   -0.087       1 
298486.000    23.0951625629   113.4947929560     14.056     -4.578     16.155   -0.140       1 
298487.000    23.0951264870   113.4949559716     13.804     -3.733     16.962   -0.228       1 
298488.000    23.0950985463   113.4951251532     13.543     -2.783     17.372   -0.243       1 
298489.000    23.0950781068   113.4952954718     13.254     -1.957     17.442   -0.395       1 
298490.000    23.0950658753   113.4954652996     12.948     -1.092     17.234   -0.295       1 
298491.000    23.0950582118   113.4956325827     12.628     -0.790     16.868   -0.325       1 
298492.000    23.0950504337   113.4957958772     12.303     -0.881     16.598   -0.345       1 
298493.000    23.0950426581   113.4959577913     11.896     -0.801     16.614   -0.360       1 
298494.000    23.0950370393   113.4961222335     11.649     -0.497     16.786   -0.477       1 
298495.000    23.0950351150   113.4962906478     11.342     -0.061     17.585   -0.247       1 
298496.000    23.0950363158   113.4964614016     11.017      0.219     17.347   -0.369       1 
298497.000    23.0950378185   113.4966291012     10.712      0.145     16.889   -0.478       1 
298498.000    23.0950386232   113.4967878914     10.499      0.095     15.758   -0.175       1 
298499.000    23.0950388850   113.4969409792     10.369     -0.032     15.586   -0.043       1 
298500.000    23.0950397568   113.4970916850     10.375      0.151     15.289    0.058       1 
298501.000    23.0950431417   113.4972399970     10.549      0.443     15.084    0.292       1 
298502.000    23.0950479921   113.4973869536     10.832      0.555     14.971    0.272       1 
298503.000    23.0950529834   113.4975327490     11.145      0.542     14.880    0.372       1 
298504.000    23.0950581472   113.4976776652     11.438      0.590     14.863    0.226       1 
298505.000    23.0950609491   113.4978233034     11.552      0.150     15.044    0.065       1 
298506.000    23.0950617456   113.4979698869     11.784      0.091     14.920    0.284       1 
298507.000    23.0950629351   113.4981149496     12.036      0.191     14.895    0.222       1 
298508.000    23.0950670620   113.4982612900     12.272      0.676     15.005    0.263       1 
298509.000    23.0950768889   113.4984097677     12.492      1.251     15.222    0.154       1 
298510.000    23.0950864135   113.4985571643     12.693      0.919     15.138    0.205       1 
298511.000    23.0950909386   113.4987053668     12.978      0.350     15.378    0.260       1 
298512.000    23.0950922733   113.4988565877     13.269      0.126     15.650    0.298       1 
298513.000    23.0950950098   113.4990113398     13.538      0.432     15.997    0.249       1 
298514.000    23.0951017661   113.4991699618     13.795      0.871     16.465    0.290       1 
298515.000    23.0951106152   113.4993326458     14.112      1.014     16.799    0.447       1 
298516.000    23.0951205435   113.4994988729     14.483      1.147     17.248    0.374       1 
298517.000    23.0951315398   113.4996690321     14.796      1.308     17.638    0.317       1 
298518.000    23.0951456466   113.4998430614     15.104      1.695     18.008    0.307       1 
298519.000    23.0951619552   113.5000205365     15.414      1.857     18.248    0.311       1 
298520.000    23.0951793991   113.5001971066     15.732      1.970     17.872    0.290       1 
298521.000    23.0951983814   113.5003703436     16.047      2.173     17.684    0.348       1 
298522.000    23.0952190895   113.5005435259     16.363      2.325     17.778    0.288       1 
298523.000    23.0952411392   113.5007173287     16.668      2.567     17.685    0.341       1 
298524.000    23.0952672387   113.5008888740     16.974      3.071     17.478    0.293       1 
298525.000    23.0952997826   113.5010595823     17.205      3.900     17.527    0.171       1 
298526.000    23.0953385885   113.5012311233     17.426      4.472     17.591    0.230       1 
298527.000    23.0953782614   113.5014037993     17.685      4.244     17.854    0.275       1 
298528.000    23.0954138032   113.5015800750     17.959      3.873     18.185    0.253       1 
298529.000    23.0954495512   113.5017592804     18.257      4.022     18.554    0.326       1 
298530.000    23.0954863362   113.5019417112     18.547      4.047     18.613    0.271       1 
298531.000    23.0955214603   113.5021228104     18.857      3.851     18.554    0.327       1 
298532.000    23.0955566202   113.5023057292     19.188      3.954     18.917    0.262       1 
298533.000    23.0955925743   113.5024908487     19.510      4.019     19.083    0.301       1 
298534.000    23.0956286951   113.5026777941     19.862      4.020     19.190    0.405       1 
298535.000    23.0956658912   113.5028658506     20.203      4.178     19.317    0.352       1 
298536.000    23.0957039021   113.5030550622     20.540      4.253     19.513    0.290       1 
298537.000    23.0957426948   113.5032454978     20.907      4.338     19.589    0.343       1 
298538.000    23.0957819802   113.5034370599     21.254      4.351     19.664    0.319       1 
298539.000    23.0958214588   113.5036304589     21.605      4.393     19.946    0.320       1 
298540.000    23.0958610803   113.5038268635     21.974      4.413     20.280    0.369       1 
298541.000    23.0959010269   113.5040264528     22.343      4.468     20.549    0.318       1 
298542.000    23.0959418820   113.5042289850     22.673      4.552     20.871    0.361       1 
298543.000    23.0959838006   113.5044344891     23.013      4.710     21.176    0.348       1 
298544.000    23.0960262908   113.5046431527     23.333      4.687     21.568    0.348       1 
298545.000    23.0960685567   113.5048551788     23.650      4.698     21.859    0.281       1 
298546.000    23.0961111801   113.5050704504     23.939      4.725     22.248    0.289       1 
298547.000    23.0961546229   113.5052888829     24.214      4.872     22.511    0.266       1 
298548.000    23.0961991809   113.5055102789     24.465      4.986     22.795    0.263       1 
298549.000    23.0962450408   113.5057341484     24.725      5.132     23.077    0.229       1 
298550.000    23.0962915385   113.5059604623     24.944      5.183     23.347    0.216       1 
298551.000    23.0963384432   113.5061893320     25.134      5.218     23.609    0.193       1 
298552.000    23.0963856399   113.5064208825     25.305      5.231     23.872    0.131       1 
298553.000    23.0964325976   113.5066552240     25.507      5.181     24.188    0.234       1 
298554.000    23.0964783655   113.5068899066     25.643      4.995     23.942    0.116       1 
298555.000    23.0965236308   113.5071226123     25.805      5.068     23.835    0.161       1 
298556.000    23.0965704765   113.5073562813     25.989      5.250     24.059    0.215       1 
298557.000    23.0966175602   113.5075915373     26.170      5.206     24.206    0.203       1 
298558.000    23.0966643577   113.5078278350     26.341      5.177     24.237    0.239       1 
298559.000    23.0967120676   113.5080649606     26.525      5.329     24.356    0.174       1 
298560.000    23.0967603677   113.5083031418     26.707      5.382     24.474    0.112       1 
298561.000    23.0968085643   113.5085425867     26.890      5.326     24.580    0.255       1 
298562.000    23.0968572314   113.5087831374     27.053      5.492     24.663    0.131       1 
298563.000    23.0969084349   113.5090239998     27.228      5.777     24.688    0.180       1 
298564.000    23.0969618275   113.5092650487     27.406      5.998     24.680    0.204       1 
298565.000    23.0970174957   113.5095060990     27.575      6.213     24.690    0.088       1 
298566.000    23.0970743282   113.5097474563     27.752      6.329     24.773    0.119       1 
298567.000    23.0971319717   113.5099892391     27.930      6.468     24.794    0.158       1 
298568.000    23.0971917014   113.5102309724     28.086      6.741     24.783    0.136       1 
298569.000    23.0972533189   113.5104728488     28.239      6.849     24.837    0.068       1 
298570.000    23.0973155504   113.5107152884     28.371      6.893     24.871    0.150       1 
298571.000    23.0973784450   113.5109582625     28.488      7.042     24.942    0.181       1 
298572.000    23.0974434672   113.5112013458     28.599      7.345     24.891    0.052       1 
298573.000    23.0975115086   113.5114442711     28.699      7.679     24.922    0.057       1 
298574.000    23.0975814766   113.5116875395     28.796      7.780     24.876    0.062       1 
298575.000    23.0976533753   113.5119308034     28.883      8.084     24.981    0.166       1 
298576.000    23.0977269425   113.5121750390     28.935      8.188     25.094    0.064       1 
298577.000    23.0978018312   113.5124205601     29.040      8.436     25.178   -0.028       1 
298578.000    23.0978798746   113.5126665668     29.117      8.813     25.284    0.110       1 
298579.000    23.0979594599   113.5129137895     29.202      8.866     25.415    0.023       1 
298580.000    23.0980391485   113.5131626787     29.288      8.800     25.602    0.089       1 
298581.000    23.0981178104   113.5134136810     29.372      8.622     25.795    0.087       1 
298582.000    23.0981933654   113.5136674354     29.447      8.209     26.188    0.104       1 
298583.000    23.0982666700   113.5139236890     29.509      8.128     26.344    0.014       1 
298584.000    23.0983401382   113.5141817863     29.495      8.166     26.492   -0.050       1 
298585.000    23.0984136767   113.5144419298     29.447      8.121     26.824   -0.089       1 
298586.000    23.0984845296   113.5147056486     29.349      7.696     27.220   -0.086       1 
298587.000    23.0985538137   113.5149727256     29.196      7.772     27.490   -0.226       1 
298588.000    23.0986242417   113.5152424070     28.985      7.766     27.794   -0.203       1 
298589.000    23.0986934336   113.5155154791     28.745      7.641     28.131   -0.300       1 
298590.000    23.0987597569   113.5157922740     28.435      7.234     28.390   -0.350       1 
298591.000    23.0988252852   113.5160685627     28.063      7.308     28.230   -0.408       1 
298592.000    23.0988908421   113.5163448497     27.652      7.167     28.409   -0.379       1 
298593.000    23.0989539661   113.5166232357     27.194      6.892     28.646   -0.439       1 
298594.000    23.0990156568   113.5169033170     26.702      6.804     28.783   -0.538       1 
298595.000    23.0990769750   113.5171851174     26.248      6.851     28.875   -0.476       1 
298596.000    23.0991409469   113.5174681437     25.774      7.248     29.105   -0.354       1 
298597.000    23.0992079654   113.5177524215     25.320      7.571     29.162   -0.465       1 
298598.000    23.0992768855   113.5180381908     24.851      7.683     29.396   -0.504       1 
298599.000    23.0993453422   113.5183260054     24.372      7.511     29.627   -0.478       1 
298600.000    23.0994114795   113.5186164479     23.903      7.231     29.898   -0.554       1 
298601.000    23.0994747396   113.5189098920     23.412      6.894     30.209   -0.511       1 
298602.000    23.0995366031   113.5192056722     22.916      6.878     30.409   -0.507       1 
298603.000    23.0995989863   113.5195032011     22.422      6.940     30.638   -0.539       1 
298604.000    23.0996606428   113.5198029482     21.916      6.766     30.810   -0.580       1 
298605.000    23.0997209055   113.5201049498     21.391      6.642     31.016   -0.567       1 
298606.000    23.0997829459   113.5204081155     20.886      7.055     31.163   -0.468       1 
298607.000    23.0998473155   113.5207122775     20.383      7.134     31.273   -0.561       1 
298608.000    23.0999113304   113.5210177098     19.862      7.166     31.287   -0.553       1 
298609.000    23.0999760492   113.5213223955     19.341      7.133     31.062   -0.428       1 
298610.000    23.1000420215   113.5216242079     18.863      7.329     30.970   -0.753       1 
298611.000    23.1001068054   113.5219254853     18.343      7.205     30.815   -0.590       1 
298612.000    23.1001712940   113.5222270939     17.812      7.040     30.894   -0.594       1 
298613.000    23.1002342959   113.5225290267     17.305      6.968     31.079   -0.633       1 
298614.000    23.1002972214   113.5228310344     16.797      7.030     30.895   -0.483       1 
298615.000    23.1003615819   113.5231315419     16.283      7.166     30.764   -0.589       1 
298616.000    23.1004258371   113.5234308681     15.844      7.137     30.653   -0.527       1 
298617.000    23.1004908114   113.5237308569     15.371      7.245     30.506   -0.578       1 
298618.000    23.1005564470   113.5240316043     14.980      7.158     30.908   -0.292       1 
298619.000    23.1006208094   113.5243333512     14.595      7.135     30.968   -0.313       1 
298620.000    23.1006860943   113.5246356997     14.235      7.371     31.130   -0.393       1 
298621.000    23.1007513243   113.5249386470     13.902      7.097     30.925   -0.325       1 
298622.000    23.1008147795   113.5252414208     13.604      7.000     31.176   -0.196       1 
298623.000    23.1008777700   113.5255447597     13.365      6.954     31.077   -0.320       1 
298624.000    23.1009413769   113.5258478200     13.095      7.064     30.923   -0.193       1 
298625.000    23.1010047250   113.5261477230     12.901      6.963     30.503   -0.180       1 
298626.000    23.1010673519   113.5264453269     12.754      6.925     30.437   -0.078       1 
298627.000    23.1011291992   113.5267420535     12.590      6.777     30.343   -0.146       1 
298628.000    23.1011896034   113.5270381161     12.461      6.643     30.196   -0.074       1 
298629.000    23.1012509412   113.5273326881     12.374      6.864     30.026   -0.022       1 
298630.000    23.1013123996   113.5276245249     12.320      6.708     29.725   -0.068       1 
298631.000    23.1013717469   113.5279128333     12.291      6.500     29.396    0.047       1 
298632.000    23.1014311260   113.5281971001     12.299      6.670     28.879    0.080       1 
298633.000    23.1014917909   113.5284775236     12.334      6.717     28.538    0.033       1 
298634.000    23.1015518041   113.5287544470     12.384      6.534     28.146    0.096       1 
298635.000    23.1016100775   113.5290275868     12.466      6.395     27.765    0.130       1 
298636.000    23.1016681531   113.5292963549     12.577      6.443     27.299    0.088       1 
298637.000    23.1017254034   113.5295612929     12.713      6.255     27.039    0.147       1 
298638.000    23.1017810337   113.5298233000     12.812      6.094     26.696    0.158       1 
298639.000    23.1018357603   113.5300819571     12.984      6.054     26.332    0.215       2 
298640.000    23.1018902113   113.5303367680     13.179      5.984     25.987    0.208       1 
298641.000    23.1019427512   113.5305882691     13.386      5.705     25.600    0.217       1 
298642.000    23.1019932281   113.5308367677     13.607      5.532     25.348    0.212       1 
298643.000    23.1020432135   113.5310820237     13.852      5.547     24.929    0.241       1 
298644.000    23.1020938217   113.5313244501     14.101      5.632     24.729    0.257       1 
298645.000    23.1021447171   113.5315635987     14.397      5.648     24.295    0.355       1 
298646.000    23.1021958206   113.5317984676     14.678      5.631     23.861    0.276       1 
298647.000    23.1022454633   113.5320289359     14.959      5.388     23.430    0.321       1 
298648.000    23.1022923769   113.5322555067     15.242      5.068     23.071    0.292       1 
298649.000    23.1023374892   113.5324794542     15.530      5.018     22.822    0.331       1 
298650.000    23.1023833727   113.5327006073     15.784      5.026     22.547    0.246       1 
298651.000    23.1024265320   113.5329196302     16.059      4.647     22.476    0.257       1 
298652.000    23.1024667762   113.5331389954     16.317      4.355     22.559    0.262       1 
298653.000    23.1025042779   113.5333595105     16.575      4.063     22.725    0.218       1 
298654.000    23.1025392799   113.5335811718     16.849      3.779     22.782    0.270       1 
298655.000    23.1025714125   113.5338042238     17.081      3.349     22.985    0.254       1 
298656.000    23.1025975641   113.5340289113     17.381      2.656     23.131    0.239       1 
298657.000    23.1026186808   113.5342549875     17.626      2.164     23.266    0.284       1 
298658.000    23.1026354771   113.5344824969     17.891      1.657     23.393    0.248       1 
298659.000    23.1026483749   113.5347112208     18.167      1.315     23.555    0.228       1 
298660.000    23.1026575393   113.5349412200     18.437      0.819     23.674    0.256       1 
298661.000    23.1026615277   113.5351724457     18.686      0.218     23.773    0.233       1 
298662.000    23.1026604910   113.5354048356     18.895     -0.315     23.854    0.220       1 
298663.000    23.1026550806   113.5356384075     19.067     -0.766     24.078    0.147       1 
