   GPSTime         Latitude        Longitude      H-Ell      Vel-N      Vel-E    Vel-U   
     (sec)            (Deg)            (Deg)        (m)      (m/s)      (m/s)    (m/s)  
 486548.00    30.4871449317   114.5638123353     26.461     -2.755     -8.007   -0.110 
 486549.00    30.4870702025   114.5637818826     26.333     -3.032     -8.563   -0.108 
 486550.00    30.4869928014   114.5637496274     26.183     -3.124     -8.608   -0.155 
 486551.00    30.4869142847   114.5637165328     26.036     -3.230     -8.817   -0.135 
 486552.00    30.4868338379   114.5636828517     25.886     -3.221     -9.028   -0.106 
 486553.00    30.4867517266   114.5636499275     25.753     -3.143     -9.185   -0.114 
 486554.00    30.4866680406   114.5636182757     25.607     -2.984     -9.400   -0.154 
 486555.00    30.4865815592   114.5635889810     25.441     -2.751     -9.744   -0.177 
 486556.00    30.4864927450   114.5635637497     25.281     -2.262     -9.927   -0.158 
 486557.00    30.4864020646   114.5635441730     25.122     -1.719    -10.196   -0.166 
 486558.00    30.4863086701   114.5635298547     24.946     -1.223    -10.502   -0.167 
 486559.00    30.4862127726   114.5635199079     24.765     -0.861    -10.750   -0.197 
 486560.00    30.4861148625   114.5635123621     24.595     -0.646    -10.975   -0.167 
 486561.00    30.4860151184   114.5635080456     24.437     -0.296    -11.105   -0.184 
 486562.00    30.4859154959   114.5635078024     24.266      0.119    -11.024   -0.195 
 486563.00    30.4858160917   114.5635119573     24.081      0.549    -11.061   -0.205 
 486564.00    30.4857152227   114.5635201673     23.898      0.894    -11.302   -0.166 
 486565.00    30.4856127563   114.5635314848     23.745      1.185    -11.422   -0.166 
 486566.00    30.4855086681   114.5635452193     23.558      1.385    -11.690   -0.208 
 486567.00    30.4854022666   114.5635603742     23.399      1.487    -11.875   -0.095 
 486568.00    30.4852947166   114.5635758821     23.342      1.471    -11.986   -0.086 
 486569.00    30.4851863674   114.5635897545     23.219      1.265    -12.019   -0.098 
 486570.00    30.4850786412   114.5636015976     23.135      1.069    -11.806   -0.126 
 486571.00    30.4849727654   114.5636139363     23.066      1.175    -11.676   -0.027 
 486572.00    30.4848677580   114.5636275720     23.018      1.359    -11.637   -0.024 
 486573.00    30.4847625768   114.5636422007     23.007      1.421    -11.712    0.002 
 486574.00    30.4846562393   114.5636569913     22.965      1.412    -11.872   -0.044 
 486575.00    30.4845490805   114.5636708393     22.911      1.260    -11.846   -0.042 
 486576.00    30.4844422197   114.5636828853     22.868      1.110    -11.891   -0.007 
 486577.00    30.4843345093   114.5636939953     22.859      1.049    -11.966   -0.014 
 486578.00    30.4842266364   114.5637043992     22.842      0.989    -11.952   -0.022 
 486579.00    30.4841189492   114.5637157013     22.791      1.139    -11.964    0.015 
 486580.00    30.4840112949   114.5637284029     22.778      1.254    -11.944   -0.011 
 486581.00    30.4839035446   114.5637425457     22.754      1.434    -11.969    0.048 
 486582.00    30.4837958999   114.5637582518     22.746      1.503    -11.931    0.027 
 486583.00    30.4836899522   114.5637726557     22.764      1.333    -11.542    0.028 
 486584.00    30.4835877373   114.5637851856     22.773      1.121    -11.069   -0.060 
 486585.00    30.4834903728   114.5637961191     22.802      1.016    -10.467   -0.005 
 486586.00    30.4833985920   114.5638063101     22.800      0.948     -9.817   -0.005 
 486587.00    30.4833161867   114.5638155065     22.817      0.798     -8.408    0.008 
 486588.00    30.4832442902   114.5638237253     22.835      0.772     -7.692   -0.007 
 486589.00    30.4831775613   114.5638315301     22.843      0.747     -7.098    0.008 
 486590.00    30.4831168287   114.5638405731     22.857      0.851     -6.237    0.018 
 486591.00    30.4830682933   114.5638492114     22.868      0.749     -4.767   -0.009 
 486592.00    30.4830285677   114.5638576260     22.868      0.778     -4.200    0.013 
 486593.00    30.4829881373   114.5638705728     22.865      1.416     -4.684    0.084 
 486594.00    30.4829487461   114.5638933122     22.952      2.329     -4.213    0.088 
 486595.00    30.4829150353   114.5639303895     23.035      3.916     -3.669    0.052 
 486596.00    30.4828871271   114.5639833903     23.082      5.509     -3.016    0.047 
 486597.00    30.4828637711   114.5640484817     23.140      6.602     -2.351    0.050 
 486598.00    30.4828482509   114.5641245249     23.232      7.647     -1.526    0.111 
 486599.00    30.4828354521   114.5642086798     23.329      8.427     -1.434    0.072 
 486600.00    30.4828221510   114.5642998107     23.427      9.026     -1.537    0.130 
 486601.00    30.4828075368   114.5643960438     23.563      9.422     -1.701    0.141 
 486602.00    30.4827906674   114.5644923271     23.687      9.049     -1.995    0.136 
 486603.00    30.4827709409   114.5645843792     23.801      8.714     -2.285    0.111 
 486604.00    30.4827501630   114.5646740730     23.912      8.538     -2.275    0.154 
 486605.00    30.4827308466   114.5647645653     24.052      8.858     -2.108    0.119 
 486606.00    30.4827111574   114.5648562048     24.132      8.679     -2.192    0.029 
 486607.00    30.4826924301   114.5649440242     24.205      8.201     -2.057    0.101 
 486608.00    30.4826721152   114.5650270754     24.333      7.929     -2.399    0.153 
 486609.00    30.4826489282   114.5651088489     24.446      7.883     -2.599    0.106 
 486610.00    30.4826273482   114.5651921618     24.539      8.046     -2.182    0.074 
 486611.00    30.4826100727   114.5652778696     24.629      8.297     -1.810    0.092 
 486612.00    30.4825951111   114.5653652903     24.722      8.412     -1.552    0.083 
 486613.00    30.4825821362   114.5654515851     24.822      8.035     -1.416    0.125 
 486614.00    30.4825687276   114.5655318948     24.950      7.394     -1.539    0.129 
 486615.00    30.4825542383   114.5656046790     25.065      6.616     -1.618    0.105 
 486616.00    30.4825380812   114.5656691823     25.151      5.853     -1.867    0.088 
 486617.00    30.4825185323   114.5657240637     25.238      4.902     -2.311    0.098 
 486618.00    30.4824924349   114.5657688623     25.325      4.219     -3.105    0.068 
 486619.00    30.4824590171   114.5658067419     25.387      3.577     -3.957    0.054 
 486620.00    30.4824177927   114.5658361694     25.399      2.788     -4.919    0.029 
 486621.00    30.4823675033   114.5658572894     25.418      1.990     -6.011    0.049 
 486622.00    30.4823084203   114.5658745006     25.450      1.677     -7.022    0.004 
 486623.00    30.4822399218   114.5658886034     25.448      1.270     -8.090   -0.012 
 486624.00    30.4821623115   114.5658985474     25.438      0.959     -9.051    0.016 
 486625.00    30.4820767537   114.5659093532     25.414      1.113     -9.896    0.020 
 486626.00    30.4819839632   114.5659220552     25.399      1.315    -10.673   -0.108 
 486627.00    30.4818844066   114.5659374947     25.355      1.616    -11.390    0.007 
 486628.00    30.4817787494   114.5659560223     25.316      1.868    -12.049    0.002 
 486629.00    30.4816671461   114.5659759019     25.304      1.907    -12.694   -0.015 
 486630.00    30.4815496869   114.5659955483     25.273      1.877    -13.343   -0.018 
 486631.00    30.4814264902   114.5660142540     25.264      1.747    -13.959   -0.021 
 486632.00    30.4812979633   114.5660320431     25.303      1.748    -14.511    0.067 
 486633.00    30.4811648785   114.5660506350     25.362      1.806    -15.003    0.060 
 486634.00    30.4810274615   114.5660695465     25.452      1.828    -15.476    0.138 
 486635.00    30.4808858879   114.5660886343     25.531      1.858    -15.927    0.093 
 486636.00    30.4807423932   114.5661075270     25.587      1.782    -15.774    0.032 
 486637.00    30.4806018523   114.5661257304     25.668      1.734    -15.348    0.000 
 486638.00    30.4804650953   114.5661439298     25.665      1.721    -14.962    0.040 
 486639.00    30.4803314480   114.5661617496     25.691      1.699    -14.715   -0.028 
 486640.00    30.4801993950   114.5661793449     25.684      1.702    -14.545   -0.082 
 486641.00    30.4800687370   114.5661969475     25.648      1.687    -14.415   -0.037 
 486642.00    30.4799393326   114.5662145921     25.598      1.696    -14.287   -0.079 
 486643.00    30.4798110069   114.5662328413     25.580      1.790    -14.181   -0.019 
 486644.00    30.4796835174   114.5662517685     25.529      1.802    -14.087   -0.050 
 486645.00    30.4795570039   114.5662700048     25.502      1.723    -13.898   -0.030 
 486646.00    30.4794333979   114.5662880779     25.528      1.746    -13.523    0.013 
 486647.00    30.4793132854   114.5663062613     25.528      1.741    -13.091    0.009 
 486648.00    30.4791976573   114.5663238705     25.510      1.623    -12.441   -0.040 
 486649.00    30.4790906630   114.5663392956     25.496      1.390    -11.435   -0.046 
 486650.00    30.4789917705   114.5663528446     25.539      1.214    -10.312    0.049 
 486651.00    30.4789059489   114.5663649850     25.514      1.089     -8.730   -0.033 
 486652.00    30.4788336141   114.5663758761     25.516      0.970     -7.444    0.005 
 486653.00    30.4787720154   114.5663858477     25.499      0.880     -6.073   -0.031 
 486654.00    30.4787250890   114.5663950558     25.471      0.771     -4.330    0.001 
 486655.00    30.4786906196   114.5664034113     25.478      0.721     -3.404    0.028 
 486656.00    30.4786642462   114.5664113767     25.494      0.658     -2.588    0.032 
 486657.00    30.4786410986   114.5664200177     25.510      0.795     -2.571    0.014 
 486658.00    30.4786202397   114.5664301846     25.539      0.882     -2.165   -0.012 
 486659.00    30.4786028761   114.5664421871     25.552      1.002     -1.801    0.004 
 486660.00    30.4785881256   114.5664552016     25.551      1.228     -1.733    0.004 
 486661.00    30.4785720244   114.5664694683     25.554      1.386     -1.967   -0.012 
 486662.00    30.4785509318   114.5664841540     25.549      1.427     -2.372   -0.018 
 486663.00    30.4785279776   114.5664965651     25.548      1.274     -2.666   -0.015 
 486664.00    30.4785019311   114.5665071143     25.565      1.115     -3.038   -0.003 
 486665.00    30.4784723135   114.5665175333     25.550      1.045     -3.338   -0.037 
 486666.00    30.4784476634   114.5665274041     25.513      0.681     -1.944   -0.025 
 486667.00    30.4784310009   114.5665355660     25.493      0.781     -1.900   -0.018 
 486668.00    30.4784139934   114.5665460367     25.458      0.970     -1.909   -0.049 
 486669.00    30.4783971768   114.5665598594     25.423      1.365     -2.052   -0.047 
 486670.00    30.4783791469   114.5665797536     25.374      2.027     -2.173   -0.049 
 486671.00    30.4783601583   114.5666107118     25.301      3.394     -2.312   -0.100 
 486672.00    30.4783423658   114.5666559409     25.209      4.743     -1.935   -0.104 
 486673.00    30.4783292035   114.5667146678     25.089      6.108     -1.415   -0.080 
 486674.00    30.4783195915   114.5667848510     24.964      7.128     -0.865   -0.168 
 486675.00    30.4783150214   114.5668639780     24.803      7.905     -0.350   -0.162 
 486676.00    30.4783143023   114.5669502874     24.649      8.601      0.030   -0.157 
 486677.00    30.4783154337   114.5670435447     24.500      9.260      0.157   -0.147 
 486678.00    30.4783167120   114.5671433594     24.337      9.881      0.123   -0.148 
 486679.00    30.4783173597   114.5672495594     24.155     10.538      0.017   -0.244 
 486680.00    30.4783165999   114.5673623927     23.951     11.030     -0.138   -0.189 
 486681.00    30.4783148028   114.5674763292     23.768     10.846     -0.236   -0.179 
 486682.00    30.4783128462   114.5675877985     23.574     10.525     -0.182   -0.208 
 486683.00    30.4783120221   114.5676952553     23.404     10.155     -0.007   -0.180 
 486684.00    30.4783126381   114.5677999777     23.232      9.935      0.103   -0.202 
 486685.00    30.4783139448   114.5679022059     23.063      9.697      0.172   -0.162 
 486686.00    30.4783168755   114.5680022485     22.883      9.532      0.434   -0.169 
 486687.00    30.4783222396   114.5681016674     22.712      9.526      0.695   -0.175 
 486688.00    30.4783295719   114.5682025464     22.558      9.865      0.857   -0.164 
 486689.00    30.4783363602   114.5683080835     22.390     10.432      0.641   -0.151 
 486690.00    30.4783406468   114.5684193300     22.225     10.991      0.359   -0.138 
 486691.00    30.4783423239   114.5685368366     22.037     11.562      0.104   -0.226 
 486692.00    30.4783423119   114.5686577105     21.837     11.637     -0.073   -0.187 
 486693.00    30.4783416447   114.5687815099     21.646     12.115     -0.080   -0.231 
 486694.00    30.4783406587   114.5689092864     21.422     12.521     -0.149   -0.226 
 486695.00    30.4783394858   114.5690417010     21.192     12.776     -0.113   -0.149 
 486696.00    30.4783388978   114.5691752230     20.978     12.860     -0.039   -0.214 
 486697.00    30.4783388968   114.5693109596     20.668     13.230      0.021   -0.439 
 486698.00    30.4783393782   114.5694500404     20.496     13.377      0.116   -0.285 
 486699.00    30.4783399040   114.5695885430     20.259     13.287      0.039   -0.255 
 486700.00    30.4783394779   114.5697271215     20.031     13.378     -0.108   -0.235 
 486701.00    30.4783379210   114.5698673014     19.806     13.580     -0.221   -0.231 
 486702.00    30.4783353593   114.5700098801     19.572     13.843     -0.298   -0.259 
 486703.00    30.4783333829   114.5701561390     19.322     14.266     -0.147   -0.252 
 486704.00    30.4783331052   114.5703076413     19.056     14.785      0.021   -0.233 
 486705.00    30.4783337712   114.5704641691     18.798     15.205      0.119   -0.299 
 486706.00    30.4783347217   114.5706233643     18.529     15.454      0.093   -0.238 
 486707.00    30.4783353085   114.5707856940     18.282     15.722      0.037   -0.275 
 486708.00    30.4783351418   114.5709494659     18.058     15.804     -0.038   -0.216 
 486709.00    30.4783344132   114.5711147474     17.894     15.982     -0.116   -0.102 
 486710.00    30.4783332151   114.5712821010     17.797     16.156     -0.154   -0.069 
 486711.00    30.4783318196   114.5714510159     17.723     16.301     -0.127   -0.066 
 486712.00    30.4783311698   114.5716215093     17.651     16.455     -0.037   -0.075 
 486713.00    30.4783312403   114.5717938745     17.592     16.637      0.014   -0.047 
 486714.00    30.4783313762   114.5719678329     17.522     16.771      0.035   -0.098 
 486715.00    30.4783316701   114.5721429861     17.444     16.895      0.048   -0.072 
 486716.00    30.4783321625   114.5723196804     17.332     16.967      0.019   -0.075 
 486717.00    30.4783312776   114.5724962462     17.242     17.020     -0.158   -0.109 
 486718.00    30.4783296880   114.5726746304     17.149     17.216     -0.158   -0.109 
 486719.00    30.4783284169   114.5728531742     17.083     17.031     -0.114   -0.096 
 486720.00    30.4783275076   114.5730297306     16.998     16.854     -0.070   -0.084 
 486721.00    30.4783274103   114.5732036264     16.902     16.542      0.069   -0.044 
 486722.00    30.4783277730   114.5733743249     16.838     16.271      0.065   -0.078 
 486723.00    30.4783287042   114.5735428794     16.757     16.107      0.137   -0.091 
 486724.00    30.4783298636   114.5737097886     16.685     15.970      0.049   -0.046 
 486725.00    30.4783295202   114.5738751308     16.635     15.829     -0.141   -0.026 
 486726.00    30.4783271615   114.5740394280     16.569     15.759     -0.298   -0.058 
 486727.00    30.4783240807   114.5742034382     16.469     15.748     -0.334   -0.114 
 486728.00    30.4783211652   114.5743675901     16.359     15.774     -0.300   -0.048 
 486729.00    30.4783186893   114.5745318818     16.350     15.754     -0.214   -0.035 
 486730.00    30.4783170202   114.5746963803     16.267     15.802     -0.147   -0.051 
 486731.00    30.4783162908   114.5748614324     16.187     15.858     -0.052   -0.054 
 486732.00    30.4783157108   114.5750272006     16.118     15.939     -0.077   -0.049 
 486733.00    30.4783146503   114.5751936414     16.079     16.024     -0.152   -0.004 
 486734.00    30.4783133770   114.5753608306     16.117     16.084     -0.127    0.042 
 486735.00    30.4783122006   114.5755287200     16.184     16.152     -0.111    0.090 
 486736.00    30.4783113694   114.5756971432     16.279     16.191     -0.065    0.140 
 486737.00    30.4783113287   114.5758664701     16.417     16.305      0.031    0.163 
 486738.00    30.4783118933   114.5760373267     16.509     16.522      0.046    0.088 
 486739.00    30.4783123730   114.5762107494     16.597     16.778      0.042    0.121 
 486740.00    30.4783128927   114.5763869762     16.708     17.058      0.061    0.070 
 486741.00    30.4783128962   114.5765659836     16.806     17.338     -0.078    0.100 
 486742.00    30.4783112311   114.5767477645     16.920     17.601     -0.246    0.101 
 486743.00    30.4783088766   114.5769324791     17.015     17.867     -0.266    0.128 
 486744.00    30.4783066273   114.5771197044     17.119     17.967     -0.252    0.152 
 486745.00    30.4783044947   114.5773065089     17.225     17.997     -0.232    0.101 
 486746.00    30.4783025320   114.5774945467     17.313     18.041     -0.203    0.143 
 486747.00    30.4783010197   114.5776825507     17.401     18.074     -0.124   -0.120 
 486748.00    30.4782996425   114.5778690348     17.513     17.867     -0.159    0.167 
 486749.00    30.4782985626   114.5780553086     17.613     17.914     -0.035   -0.065 
 486750.00    30.4782984301   114.5782418559     17.739     17.917      0.014    0.152 
 486751.00    30.4782986859   114.5784272183     17.869     17.602      0.024    0.144 
 486752.00    30.4782987634   114.5786082145     17.967     17.162     -0.015    0.078 
 486753.00    30.4782981163   114.5787845683     18.072     16.699     -0.109    0.135 
 486754.00    30.4782965953   114.5789563457     18.191     16.276     -0.172    0.111 
 486755.00    30.4782947555   114.5791238213     18.276     15.888     -0.152    0.077 
 486756.00    30.4782947069   114.5792880409     18.379     15.605      0.024    0.101 
 486757.00    30.4782942994   114.5794483650     18.478     15.181     -0.032    0.070 
 486758.00    30.4782946327   114.5796019736     18.554     14.359      0.034    0.144 
 486759.00    30.4782951197   114.5797461031     18.650     13.140      0.035    0.086 
 486760.00    30.4782948090   114.5798735486     18.717     11.269     -0.048    0.101 
 486761.00    30.4782949560   114.5799766541     18.765      8.330      0.040    0.062 
 486762.00    30.4782957192   114.5800448477     18.808      4.679      0.074    0.012 
 486763.00    30.4782962384   114.5800754991     18.825      1.778      0.034    0.021 
 486764.00    30.4782964108   114.5800851534     18.831      0.096     -0.005    0.019 
 486765.00    30.4782964071   114.5800849770     18.839      0.006      0.014   -0.026 
 486766.00    30.4782964078   114.5800849713     18.839     -0.002     -0.008    0.013 
 486767.00    30.4782964106   114.5800849697     18.839     -0.004     -0.003    0.004 
 486768.00    30.4782964133   114.5800849679     18.838      0.001      0.011   -0.029 
 486769.00    30.4782964184   114.5800849647     18.836      0.001     -0.004    0.016 
